ElapsedTime,Counter,CH0,CH1,CH2,CH3,CH4,CH5
2.798,163,32944,32910,32890,32886,32870,32861
2.798,164,33384,33281,33215,33187,33127,33085
2.806,165,33585,33495,33414,33358,33266,33196
2.828,166,33407,33396,33362,33311,33230,33160
2.828,167,33364,33369,33367,33347,33289,33224
2.851,168,33389,33382,33377,33369,33335,33278
2.851,169,33294,33297,33301,33298,33287,33251
2.877,170,33279,33272,33278,33284,33285,33265
2.877,171,33197,33253,33254,33257,33262,33254
2.877,172,33053,33207,33209,33208,33218,33219
2.887,173,32858,32994,33071,33112,33160,33183
2.904,174,32564,32644,32796,32893,33014,33083
2.904,175,32743,32626,32675,32740,32867,32964
2.904,176,32980,32699,32673,32687,32772,32866
2.908,177,32825,32717,32693,32678,32713,32786
2.909,178,32924,32923,32834,32772,32733,32759
2.929,179,32935,32919,32881,32838,32776,32767
2.929,180,32789,32829,32850,32841,32798,32777
2.936,181,32872,32889,32873,32859,32823,32795
2.955,182,32839,32836,32843,32845,32830,32807
2.955,183,32780,32799,32813,32820,32820,32807
2.955,184,32819,32820,32812,32810,32812,32803
2.980,185,32797,32788,32790,32794,32798,32794
2.980,186,32776,32781,32780,32782,32784,32783
2.980,187,32778,32784,32781,32777,32778,32775
3.007,188,32766,32769,32772,32770,32771,32767
3.008,189,32765,32773,32769,32767,32766,32760
3.008,190,32763,32775,32768,32766,32764,32758
3.008,191,32742,32755,32757,32758,32758,32754
3.033,192,32739,32744,32747,32748,32751,32750
3.034,193,32737,32738,32741,32740,32745,32744
3.057,194,32730,32733,32733,32733,32737,32738
3.057,195,32740,32735,32731,32730,32731,32733
3.057,196,32736,32737,32733,32730,32728,32729
3.082,197,32723,32733,32733,32730,32726,32728
3.082,198,32425,32537,32610,32649,32685,32705
3.082,199,32037,32218,32366,32459,32570,32633
3.106,200,32248,32229,32275,32337,32453,32541
3.129,201,32387,32319,32290,32303,32378,32463
3.129,202,32351,32347,32325,32313,32344,32409
3.129,203,32659,32548,32468,32414,32376,32400
3.154,204,32582,32574,32533,32492,32431,32421
3.154,205,32460,32527,32538,32523,32476,32449
3.160,206,32628,32600,32581,32565,32520,32485
3.160,207,32551,32572,32574,32574,32548,32517
3.160,208,32537,32561,32570,32573,32562,32538
3.161,209,32615,32595,32586,32582,32574,32554
3.180,210,32587,32588,32586,32586,32582,32566
3.180,211,32602,32603,32599,32596,32590,32577
3.180,212,32618,32620,32613,32609,32600,32589
3.211,213,32607,32615,32616,32615,32608,32597
3.234,214,32614,32620,32621,32620,32616,32603
3.234,215,32619,32628,32626,32626,32624,32612
3.234,216,32621,32630,32629,32630,32629,32620
3.241,217,32632,32635,32634,32635,32632,32627
3.261,218,32639,32639,32638,32638,32637,32633
3.261,219,32646,32646,32645,32642,32643,32640
3.261,220,32658,32656,32652,32650,32650,32646
3.261,221,32668,32667,32662,32660,32655,32652
3.268,222,32685,32681,32674,32670,32662,32659
3.268,223,32391,32495,32564,32599,32631,32646
3.291,224,32000,32185,32330,32422,32527,32584
3.291,225,32212,32207,32251,32312,32422,32503
3.319,226,32348,32306,32277,32288,32358,32435
3.319,227,32330,32329,32311,32300,32330,32390
3.319,228,32653,32517,32445,32395,32361,32384
3.347,229,32580,32561,32519,32478,32418,32408
3.347,230,32473,32541,32542,32523,32471,32442
3.347,231,32642,32614,32592,32573,32524,32485
3.356,232,32568,32590,32591,32589,32558,32523
3.375,233,32570,32592,32595,32596,32580,32551
3.375,234,32655,32628,32617,32612,32600,32576
3.375,235,32634,32627,32624,32622,32614,32596
3.375,236,32663,32656,32647,32641,32630,32612
3.386,237,32692,32689,32676,32666,32650,32631
3.407,238,32687,32694,32691,32684,32668,32649
3.407,239,32706,32708,32704,32699,32686,32667
3.412,240,32721,32724,32719,32715,32705,32685
3.434,241,32724,32730,32728,32725,32719,32701
3.434,242,32743,32741,32738,32736,32729,32717
3.434,243,32758,32752,32750,32747,32739,32730
3.463,244,32769,32764,32760,32758,32750,32741
3.463,245,32784,32775,32770,32767,32763,32753
3.492,246,32798,32788,32783,32778,32773,32765
3.492,247,32820,32805,32798,32793,32784,32776
3.492,248,32524,32623,32691,32726,32755,32765
3.492,249,32137,32313,32459,32550,32653,32707
3.493,250,32359,32340,32382,32442,32550,32629
3.493,251,32488,32447,32411,32424,32490,32564
3.503,252,32459,32456,32437,32431,32461,32519
3.523,253,32781,32621,32556,32512,32485,32511
3.523,254,32719,32682,32637,32596,32538,32532
3.523,255,32618,32684,32675,32650,32594,32566
3.551,0,32787,32752,32728,32704,32651,32610
3.551,1,32716,32733,32732,32727,32691,32652
3.581,2,32715,32740,32740,32739,32717,32685
3.581,3,32803,32772,32760,32755,32739,32712
3.582,4,32791,32777,32771,32769,32757,32733
3.610,5,32812,32806,32794,32787,32775,32752
3.610,6,32834,32830,32817,32808,32793,32770
3.610,7,32833,32836,32831,32825,32810,32789
3.610,8,32855,32852,32848,32842,32828,32807
3.615,9,32869,32867,32861,32857,32845,32824
3.617,10,32868,32875,32870,32868,32859,32840
3.618,11,32885,32890,32883,32879,32871,32856
3.639,12,32900,32899,32894,32890,32882,32870
3.646,13,32909,32902,32902,32897,32891,32881
3.648,14,32922,32911,32909,32904,32899,32891
3.670,15,32934,32923,32917,32912,32907,32899
3.670,16,32960,32939,32930,32926,32916,32908
3.672,17,32671,32842,32877,32894,32904,32906
3.672,18,32279,32665,32745,32795,32849,32876
3.705,19,32488,32590,32643,32696,32772,32825
3.705,20,32617,32515,32549,32602,32687,32756
3.711,21,32582,32540,32536,32559,32623,32691
3.712,22,32894,32684,32629,32600,32611,32658
3.712,23,32839,32719,32689,32656,32632,32649
3.736,24,32738,32797,32766,32729,32680,32667
3.765,25,32895,32844,32819,32789,32734,32704
3.767,26,32821,32803,32810,32806,32770,32737
3.767,27,32810,32835,32829,32822,32798,32767
3.775,28,32878,32837,32834,32830,32816,32791
3.796,29,32852,32824,32827,32830,32823,32805
3.796,30,32880,32860,32848,32842,32834,32818
3.796,31,32920,32887,32873,32862,32851,32833
3.826,32,32913,32899,32892,32882,32866,32848
3.826,33,32923,32914,32909,32900,32882,32863
3.832,34,32941,32924,32920,32914,32899,32879
3.832,35,32946,32933,32929,32924,32913,32895
3.833,36,32963,32949,32943,32937,32926,32909
3.833,37,32979,32964,32956,32950,32940,32925
3.852,38,32989,32974,32967,32962,32951,32939
3.852,39,33000,32979,32975,32970,32960,32950
3.857,40,33017,32992,32985,32979,32972,32960
3.882,41,33040,33014,33004,32996,32985,32971
3.882,42,32735,32958,32976,32983,32982,32976
3.882,43,32346,32855,32899,32927,32952,32965
3.886,44,32569,32733,32788,32835,32893,32927
3.910,45,32694,32550,32624,32696,32795,32856
3.910,46,32650,32553,32571,32612,32703,32780
3.910,47,32960,32639,32614,32607,32654,32721
3.941,48,32911,32695,32667,32644,32647,32687
3.941,49,32821,32886,32814,32756,32700,32698
3.948,50,32972,32911,32880,32837,32766,32736
3.948,51,32889,32852,32865,32857,32810,32774
3.950,52,32876,32919,32900,32888,32850,32811
3.970,53,32945,32899,32897,32894,32873,32840
3.970,54,32920,32886,32891,32893,32883,32859
3.970,55,32941,32926,32914,32906,32895,32875
4.000,56,32958,32924,32919,32914,32905,32887
4.000,57,32941,32931,32926,32922,32914,32897
4.000,58,32949,32940,32935,32930,32922,32905
4.006,59,32958,32938,32937,32935,32928,32914
4.029,60,32964,32950,32944,32942,32936,32923
4.029,61,32977,32961,32955,32950,32945,32932
4.058,62,32980,32965,32961,32956,32951,32939
4.058,63,32989,32973,32968,32964,32955,32947
4.058,64,33001,32979,32975,32969,32962,32955
4.066,65,33020,32989,32985,32977,32969,32963
4.087,66,33044,33009,33001,32992,32979,32971
4.087,67,32739,33012,33007,33001,32989,32980
4.087,68,32348,32998,33000,32998,32993,32987
4.089,69,32564,32811,32873,32915,32951,32968
4.118,70,32689,32510,32629,32728,32837,32897
4.118,71,32641,32538,32563,32619,32727,32810
4.119,72,32931,32634,32606,32604,32664,32741
4.126,73,32904,32660,32642,32625,32642,32695
4.126,74,32837,32876,32798,32738,32688,32697
4.148,75,32971,32901,32868,32822,32752,32729
4.148,76,32901,32840,32854,32844,32796,32763
4.176,77,32907,32925,32903,32885,32841,32802
4.176,78,32963,32903,32904,32898,32869,32834
4.176,79,32939,32893,32898,32899,32883,32856
4.182,80,32964,32936,32923,32915,32900,32875
4.184,81,32976,32928,32926,32922,32911,32891
4.205,82,32951,32931,32930,32926,32918,32901
4.205,83,32952,32934,32932,32929,32924,32908
4.205,84,32960,32927,32928,32929,32926,32914
4.235,85,32956,32933,32930,32931,32929,32918
4.235,86,32951,32930,32931,32930,32929,32922
4.235,87,32946,32923,32927,32926,32927,32924
4.241,88,32946,32925,32924,32925,32924,32923
4.263,89,32947,32925,32923,32924,32922,32923
4.263,90,32961,32928,32925,32923,32922,32922
4.263,91,32985,32943,32937,32930,32926,32923
4.291,92,32683,32955,32949,32941,32933,32929
4.292,93,32294,32956,32953,32948,32940,32935
4.319,94,32512,32761,32824,32867,32900,32916
4.319,95,32630,32442,32567,32670,32782,32843
4.319,96,32529,32469,32496,32554,32668,32754
4.319,97,32768,32562,32536,32537,32601,32682
4.319,98,32802,32571,32557,32546,32570,32630
4.325,99,32794,32777,32698,32645,32606,32623
4.351,100,32893,32819,32779,32732,32667,32650
4.351,101,32829,32770,32781,32765,32713,32683
4.352,102,32858,32850,32828,32807,32760,32722
4.352,103,32904,32839,32834,32826,32794,32757
4.380,104,32897,32846,32844,32840,32818,32786
4.408,105,32935,32894,32876,32865,32842,32813
4.434,106,32944,32889,32884,32878,32860,32833
4.436,107,32931,32899,32895,32888,32874,32849
4.437,108,32936,32912,32907,32900,32887,32865
4.460,109,32938,32909,32908,32906,32897,32878
4.460,110,32934,32912,32911,32910,32904,32887
4.460,111,32937,32911,32911,32909,32907,32895
4.460,112,32930,32904,32907,32906,32907,32900
4.460,113,32920,32903,32904,32904,32905,32900
4.460,114,32913,32897,32897,32899,32901,32900
4.460,115,32919,32893,32892,32893,32896,32899
4.474,116,32935,32900,32896,32894,32894,32896
4.492,117,32636,32906,32901,32897,32895,32896
4.492,118,32250,32910,32905,32900,32899,32898
4.492,119,32443,32703,32770,32813,32854,32873
4.494,120,32558,32374,32505,32611,32730,32796
4.525,121,32399,32405,32434,32494,32612,32704
4.525,122,32531,32495,32472,32472,32542,32627
4.525,123,32680,32488,32481,32473,32504,32570
4.551,124,32789,32675,32605,32560,32528,32555
4.551,125,32796,32723,32684,32640,32582,32574
4.557,126,32745,32691,32695,32677,32629,32603
4.557,127,32821,32765,32744,32723,32676,32640
4.575,128,32818,32753,32751,32744,32710,32675
4.582,129,32826,32766,32764,32758,32735,32705
4.582,130,32888,32818,32800,32786,32762,32732
4.602,131,32905,32829,32820,32809,32786,32757
4.602,132,32909,32850,32843,32831,32809,32781
4.603,133,32911,32873,32865,32852,32832,32803
4.613,134,32922,32883,32878,32870,32851,32824
4.613,135,32930,32893,32888,32884,32867,32843
4.660,136,32925,32896,32894,32890,32879,32859
4.660,137,32913,32885,32889,32889,32886,32871
4.660,138,32910,32882,32885,32886,32887,32877
4.660,139,32911,32883,32884,32883,32884,32879
4.660,140,32913,32884,32882,32881,32883,32880
4.669,141,32924,32890,32886,32884,32883,32883
4.690,142,32632,32897,32894,32889,32884,32884
4.690,143,32251,32903,32900,32894,32889,32887
4.690,144,32446,32703,32773,32813,32850,32866
4.717,145,32556,32368,32510,32614,32730,32792
4.717,146,32368,32379,32420,32486,32607,32699
4.717,147,32485,32466,32442,32450,32530,32619
4.724,148,32644,32447,32443,32442,32484,32556
4.743,149,32753,32604,32547,32511,32494,32531
4.743,150,32752,32665,32623,32584,32537,32539
4.773,151,32700,32655,32651,32629,32581,32563
4.773,152,32771,32717,32697,32676,32627,32597
4.774,153,32758,32702,32701,32694,32663,32630
4.777,154,32766,32717,32713,32709,32688,32657
4.777,155,32831,32760,32744,32732,32711,32684
4.780,156,32844,32773,32763,32754,32734,32708
4.802,157,32854,32801,32790,32778,32757,32730
4.804,158,32870,32829,32817,32802,32781,32754
4.804,159,32885,32844,32836,32825,32804,32776
4.834,160,32896,32861,32854,32847,32826,32798
4.834,161,32905,32876,32870,32864,32846,32820
4.860,162,32908,32879,32876,32873,32860,32839
4.860,163,32911,32883,32882,32878,32869,32854
4.860,164,32913,32890,32887,32884,32878,32866
4.888,165,32920,32896,32890,32889,32884,32872
4.888,166,32929,32905,32900,32896,32890,32881
4.888,167,32903,32910,32907,32902,32896,32890
4.897,168,32863,32905,32905,32902,32898,32895
4.918,169,32592,32706,32778,32819,32857,32873
4.918,170,32246,32388,32534,32632,32742,32803
4.918,171,32419,32404,32448,32510,32626,32715
4.918,172,32529,32488,32461,32473,32552,32637
4.923,173,32512,32484,32474,32470,32509,32577
4.930,174,32812,32650,32586,32545,32523,32558
4.930,175,32725,32691,32652,32614,32566,32568
4.951,176,32599,32667,32669,32651,32607,32590
4.979,177,32746,32717,32702,32687,32647,32619
4.979,178,32671,32685,32690,32690,32670,32645
5.007,179,32677,32696,32696,32695,32685,32664
5.007,180,32761,32727,32714,32710,32698,32681
5.007,181,32740,32720,32716,32716,32709,32693
5.007,182,32766,32750,32739,32732,32721,32706
5.007,183,32794,32787,32770,32758,32740,32722
5.015,184,32799,32800,32790,32781,32761,32739
5.038,185,32823,32819,32810,32802,32782,32759
5.039,186,32838,32838,32828,32821,32803,32780
5.039,187,32842,32849,32842,32836,32822,32800
5.046,188,32863,32868,32858,32852,32838,32819
5.047,189,32871,32876,32869,32865,32851,32836
5.047,190,32872,32883,32878,32875,32863,32849
5.067,191,32892,32901,32892,32887,32876,32864
5.069,192,32902,32914,32904,32898,32888,32878
5.095,193,32903,32922,32913,32908,32897,32887
5.119,194,32605,32733,32800,32837,32865,32874
5.119,195,32209,32413,32560,32653,32758,32811
5.119,196,32409,32424,32471,32532,32646,32727
5.126,197,32541,32516,32487,32499,32575,32653
5.127,198,32527,32523,32509,32502,32537,32600
5.127,199,32862,32698,32630,32585,32558,32587
5.144,200,32773,32752,32705,32664,32609,32603
5.149,201,32637,32737,32733,32709,32659,32633
5.153,202,32795,32787,32770,32751,32705,32670
5.170,203,32705,32747,32753,32756,32731,32699
5.170,204,32692,32740,32747,32751,32743,32719
5.197,205,32766,32753,32750,32751,32748,32733
5.197,206,32726,32735,32738,32744,32748,32738
5.197,207,32742,32752,32747,32747,32748,32741
5.202,208,32763,32774,32763,32759,32753,32746
5.247,209,32756,32776,32771,32768,32761,32751
5.247,210,32775,32790,32784,32779,32772,32759
5.247,211,32788,32807,32799,32794,32784,32771
5.248,212,32796,32816,32810,32807,32796,32782
5.251,213,32817,32832,32825,32820,32808,32795
5.251,214,32827,32840,32834,32830,32820,32808
5.253,215,32841,32848,32844,32840,32832,32820
5.279,216,32863,32868,32860,32853,32843,32832
5.279,217,32870,32885,32875,32867,32855,32844
5.284,218,32877,32903,32891,32884,32870,32858
5.284,219,32586,32717,32782,32817,32842,32849
5.306,220,32200,32399,32544,32637,32737,32789
5.312,221,32408,32421,32462,32522,32632,32710
5.334,222,32537,32518,32484,32496,32565,32640
5.334,223,32522,32497,32490,32489,32524,32588
5.334,224,32862,32627,32579,32546,32534,32568
5.363,225,32792,32722,32671,32627,32580,32579
5.363,226,32679,32786,32753,32710,32643,32614
5.363,227,32841,32830,32807,32775,32709,32663
5.363,228,32755,32795,32798,32795,32752,32709
5.372,229,32748,32817,32812,32809,32782,32744
5.393,230,32818,32817,32814,32813,32799,32770
5.393,231,32774,32792,32799,32805,32803,32785
5.393,232,32791,32816,32808,32808,32807,32793
5.402,233,32818,32832,32822,32818,32813,32802
5.420,234,32806,32831,32827,32825,32818,32809
5.420,235,32809,32832,32830,32828,32824,32814
5.422,236,32808,32835,32832,32831,32830,32818
5.450,237,32804,32836,32833,32833,32834,32824
5.450,238,32812,32837,32836,32835,32835,32828
5.450,239,32817,32835,32835,32836,32834,32832
5.476,240,32828,32840,32837,32837,32837,32835
5.476,241,32848,32852,32845,32842,32841,32838
5.482,242,32858,32866,32858,32852,32846,32842
5.482,243,32869,32885,32874,32867,32856,32851
5.483,244,32575,32699,32764,32799,32826,32838
5.503,245,32186,32381,32528,32619,32721,32776
5.509,246,32398,32404,32447,32505,32615,32695
5.509,247,32526,32502,32467,32480,32548,32626
5.533,248,32488,32437,32447,32455,32500,32568
5.534,249,32804,32496,32483,32469,32482,32531
5.538,250,32764,32638,32582,32544,32511,32527
5.538,251,32686,32792,32725,32664,32587,32562
5.561,252,32843,32830,32797,32753,32669,32619
5.588,253,32774,32803,32802,32790,32729,32675
5.617,254,32786,32857,32840,32826,32779,32727
5.617,255,32859,32850,32846,32840,32811,32768
5.617,0,32829,32838,32841,32844,32828,32796
5.617,1,32848,32870,32861,32855,32843,32817
5.617,2,32862,32876,32870,32864,32855,32833
5.617,3,32851,32879,32874,32871,32864,32844
5.617,4,32861,32886,32882,32879,32871,32854
5.627,5,32862,32885,32883,32882,32878,32863
5.627,6,32853,32880,32880,32881,32882,32869
5.646,7,32857,32877,32878,32879,32881,32873
5.647,8,32854,32871,32872,32874,32878,32875
5.683,9,32856,32869,32869,32871,32875,32875
5.685,10,32871,32874,32871,32870,32873,32874
5.685,11,32874,32877,32873,32872,32873,32873
5.710,12,32879,32884,32879,32876,32874,32875
5.711,13,32575,32690,32760,32798,32834,32852
5.729,14,32185,32368,32516,32611,32720,32782
5.729,15,32404,32394,32436,32496,32609,32695
5.729,16,32525,32497,32461,32473,32543,32623
5.729,17,32459,32430,32439,32447,32493,32564
5.729,18,32743,32488,32474,32460,32475,32525
5.735,19,32741,32622,32569,32532,32502,32520
5.761,20,32693,32759,32696,32641,32570,32551
5.761,21,32820,32802,32767,32725,32647,32602
5.768,22,32759,32784,32781,32764,32706,32654
5.769,23,32779,32828,32814,32799,32754,32704
5.788,24,32841,32831,32824,32818,32787,32744
5.788,25,32835,32835,32831,32828,32808,32775
5.788,26,32873,32875,32860,32848,32830,32800
5.797,27,32895,32894,32882,32870,32852,32822
5.844,28,32891,32902,32896,32888,32870,32843
5.844,29,32901,32914,32908,32902,32886,32863
5.844,30,32913,32921,32917,32912,32900,32879
5.844,31,32912,32922,32921,32918,32910,32892
5.844,32,32912,32924,32923,32920,32918,32902
5.845,33,32909,32920,32920,32920,32920,32909
5.873,34,32911,32918,32917,32919,32918,32913
5.873,35,32925,32923,32919,32919,32919,32916
5.873,36,32934,32925,32923,32920,32920,32918
5.898,37,32936,32928,32925,32922,32921,32919
5.898,38,32625,32912,32915,32916,32918,32918
5.898,39,32231,32880,32892,32900,32907,32913
5.906,40,32437,32686,32753,32804,32853,32881
5.924,41,32556,32385,32504,32608,32729,32800
5.924,42,32450,32402,32431,32491,32610,32705
5.954,43,32679,32486,32464,32467,32538,32625
5.954,44,32707,32494,32483,32474,32504,32569
5.960,45,32686,32684,32613,32566,32534,32557
5.960,46,32781,32719,32684,32642,32585,32577
5.961,47,32727,32674,32685,32671,32627,32605
5.978,48,32767,32759,32736,32716,32673,32641
5.978,49,32819,32752,32746,32738,32706,32673
6.007,50,32816,32755,32755,32752,32730,32701
6.007,51,32865,32810,32793,32779,32756,32728
6.007,52,32898,32830,32819,32805,32782,32753
6.012,53,32900,32856,32846,32833,32807,32779
6.032,54,32919,32885,32873,32860,32834,32805
6.032,55,32942,32897,32891,32881,32859,32829
6.033,56,32942,32904,32903,32895,32879,32851
6.060,57,32948,32915,32913,32907,32894,32872
6.060,58,32954,32920,32918,32914,32905,32887
6.060,59,32957,32925,32922,32919,32913,32899
6.086,60,32965,32929,32927,32925,32918,32909
6.086,61,32971,32929,32930,32928,32921,32915
6.086,62,32976,32933,32933,32929,32925,32919
6.086,63,32674,32933,32933,32931,32927,32922
6.113,64,32291,32935,32934,32933,32928,32927
6.114,65,32494,32735,32800,32846,32884,32904
6.119,66,32608,32403,32535,32642,32761,32828
6.119,67,32515,32428,32460,32521,32642,32735
6.141,68,32743,32513,32492,32496,32568,32654
6.141,69,32757,32512,32503,32497,32530,32597
6.145,70,32744,32718,32641,32591,32560,32585
6.165,71,32829,32745,32710,32669,32613,32603
6.195,72,32741,32673,32694,32686,32648,32627
6.195,73,32754,32737,32725,32712,32681,32655
6.195,74,32786,32710,32716,32715,32699,32676
6.195,75,32778,32704,32712,32715,32708,32691
6.195,76,32830,32759,32744,32734,32723,32706
6.223,77,32871,32780,32769,32756,32741,32722
6.223,78,32873,32810,32799,32783,32763,32741
6.223,79,32887,32839,32827,32812,32788,32764
6.224,80,32908,32852,32846,32836,32813,32787
6.252,81,32907,32862,32860,32853,32835,32809
6.252,82,32919,32875,32872,32865,32852,32829
6.252,83,32936,32885,32882,32876,32867,32846
6.257,84,32942,32899,32894,32887,32879,32860
6.279,85,32961,32913,32906,32901,32891,32875
6.305,86,32977,32923,32918,32914,32902,32889
6.305,87,32979,32929,32927,32921,32912,32901
6.305,88,32678,32934,32933,32927,32919,32910
6.333,89,32299,32947,32942,32936,32928,32919
6.333,90,32508,32752,32815,32857,32891,32902
6.333,91,32627,32421,32552,32658,32772,32832
6.341,92,32532,32446,32477,32538,32656,32743
6.341,93,32766,32535,32511,32515,32586,32669
6.341,94,32805,32550,32536,32526,32554,32617
6.342,95,32809,32775,32691,32634,32592,32610
6.360,96,32882,32803,32765,32719,32653,32636
6.361,97,32798,32733,32752,32742,32695,32667
6.389,98,32827,32807,32791,32778,32737,32703
6.389,99,32841,32774,32780,32781,32761,32730
6.389,100,32812,32758,32769,32775,32768,32747
6.417,101,32861,32805,32793,32788,32778,32761
6.417,102,32885,32809,32804,32799,32789,32773
6.417,103,32874,32821,32818,32811,32802,32786
6.417,104,32879,32837,32832,32825,32814,32798
6.426,105,32884,32840,32839,32835,32824,32808
6.443,106,32878,32848,32846,32843,32834,32819
6.443,107,32888,32855,32854,32849,32843,32830
6.451,108,32892,32853,32855,32851,32848,32840
6.468,109,32888,32857,32856,32853,32852,32846
6.468,110,32896,32862,32860,32858,32855,32849
6.469,111,32914,32871,32868,32865,32859,32855
6.495,112,32933,32887,32881,32875,32867,32862
6.495,113,32634,32898,32894,32886,32876,32870
6.502,114,32250,32911,32906,32898,32887,32880
6.502,115,32462,32716,32778,32819,32852,32864
6.550,116,32580,32387,32517,32623,32734,32795
6.550,117,32435,32419,32447,32507,32622,32708
6.574,118,32600,32511,32485,32487,32556,32634
6.574,119,32733,32519,32505,32496,32524,32584
6.574,120,32837,32737,32653,32600,32559,32579
6.574,121,32847,32778,32737,32689,32622,32605
6.574,122,32772,32724,32738,32723,32671,32639
6.574,123,32846,32800,32782,32764,32717,32679
6.583,124,32836,32778,32780,32776,32747,32713
6.595,125,32818,32770,32777,32778,32764,32737
6.604,126,32871,32810,32798,32793,32779,32756
6.604,127,32879,32811,32807,32803,32791,32772
6.605,128,32874,32826,32822,32815,32803,32786
6.633,129,32880,32843,32837,32829,32816,32800
6.633,130,32882,32842,32841,32838,32827,32811
6.633,131,32879,32851,32848,32846,32838,32821
6.663,132,32886,32861,32857,32854,32848,32833
6.663,133,32890,32860,32859,32858,32854,32843
6.687,134,32898,32867,32865,32863,32859,32850
6.687,135,32909,32877,32873,32869,32864,32856
6.687,136,32913,32884,32879,32876,32871,32864
6.694,137,32915,32887,32883,32881,32876,32870
6.695,138,32622,32891,32889,32886,32880,32876
6.695,139,32251,32907,32902,32896,32887,32884
6.714,140,32452,32710,32774,32816,32850,32865
6.714,141,32568,32384,32513,32618,32732,32792
6.741,142,32398,32418,32445,32504,32620,32706
6.741,143,32514,32503,32480,32483,32552,32634
6.741,144,32690,32496,32487,32481,32515,32579
6.769,145,32844,32698,32622,32574,32542,32566
6.769,146,32823,32753,32710,32662,32599,32589
6.769,147,32754,32720,32723,32703,32649,32622
6.795,148,32842,32790,32770,32750,32699,32661
6.795,149,32813,32763,32768,32764,32733,32696
6.795,150,32801,32758,32765,32766,32751,32722
6.795,151,32857,32797,32785,32780,32767,32743
6.801,152,32868,32802,32797,32792,32780,32760
6.819,153,32880,32825,32818,32809,32795,32776
6.820,154,32887,32849,32841,32829,32814,32792
6.820,155,32883,32853,32851,32843,32829,32808
6.842,156,32884,32860,32857,32854,32843,32822
6.842,157,32892,32869,32865,32863,32854,32836
6.864,158,32892,32868,32868,32867,32861,32848
6.864,159,32898,32873,32872,32869,32866,32856
6.864,160,32909,32882,32879,32874,32872,32863
6.891,161,32911,32888,32885,32880,32876,32870
6.891,162,32914,32890,32887,32885,32880,32874
6.891,163,32622,32897,32892,32891,32884,32879
6.914,164,32254,32916,32908,32902,32892,32888
6.914,165,32462,32723,32788,32824,32857,32871
6.920,166,32572,32389,32530,32630,32742,32801
6.920,167,32392,32412,32448,32511,32628,32713
6.937,168,32513,32506,32477,32484,32557,32639
6.967,169,32696,32499,32489,32483,32518,32584
6.967,170,32842,32677,32608,32566,32539,32567
6.969,171,32815,32736,32691,32648,32590,32584
6.972,172,32753,32729,32723,32698,32643,32617
6.972,173,32848,32801,32777,32751,32698,32658
7.000,174,32814,32774,32775,32769,32734,32695
7.000,175,32795,32769,32774,32773,32755,32725
7.020,176,32853,32800,32791,32785,32772,32747
7.020,177,32855,32799,32794,32793,32783,32763
7.020,178,32862,32824,32813,32807,32795,32777
7.020,179,32885,32854,32840,32829,32813,32793
7.020,180,32887,32858,32854,32847,32830,32809
7.050,181,32882,32864,32862,32857,32844,32824
7.050,182,32893,32877,32871,32867,32857,32838
7.052,183,32893,32879,32875,32874,32866,32851
7.075,184,32899,32882,32879,32879,32872,32861
7.075,185,32915,32889,32885,32883,32877,32870
7.081,186,32912,32894,32890,32887,32883,32876
7.081,187,32912,32897,32893,32891,32887,32881
7.098,188,32627,32907,32901,32896,32892,32887
7.122,189,32257,32926,32916,32909,32902,32895
7.122,190,32459,32731,32800,32837,32867,32879
7.122,191,32576,32399,32550,32645,32753,32812
7.131,192,32398,32419,32462,32524,32640,32724
7.147,193,32513,32510,32479,32492,32568,32649
7.147,194,32687,32492,32486,32483,32524,32591
7.147,195,32832,32649,32591,32553,32536,32569
7.148,196,32818,32724,32674,32633,32582,32581
7.175,197,32752,32742,32726,32693,32636,32612
7.175,198,32835,32803,32778,32751,32693,32654
7.175,199,32810,32777,32775,32771,32732,32693
7.202,200,32797,32782,32781,32779,32756,32724
7.202,201,32854,32806,32795,32791,32774,32749
7.225,202,32866,32811,32804,32802,32789,32768
7.225,203,32871,32840,32828,32819,32804,32785
7.225,204,32882,32862,32848,32839,32821,32802
7.248,205,32889,32868,32861,32854,32837,32818
7.248,206,32893,32880,32876,32868,32854,32833
7.248,207,32900,32892,32886,32881,32869,32848
7.253,208,32899,32894,32889,32887,32879,32862
7.255,209,32903,32899,32893,32892,32884,32873
7.273,210,32909,32901,32897,32896,32891,32882
7.273,211,32912,32903,32899,32897,32895,32888
7.278,212,32922,32909,32905,32901,32899,32893
7.299,213,32745,32918,32913,32908,32903,32898
7.299,214,32520,32932,32923,32917,32908,32905
7.300,215,32523,32735,32805,32841,32872,32888
7.325,216,32439,32406,32556,32651,32760,32819
7.325,217,32417,32426,32468,32531,32648,32731
7.347,218,32531,32517,32487,32498,32575,32656
7.347,219,32623,32468,32473,32477,32524,32594
7.372,220,32838,32564,32531,32511,32514,32559
7.372,221,32796,32670,32619,32582,32547,32559
7.378,222,32719,32768,32721,32674,32610,32589
7.378,223,32840,32815,32784,32748,32678,32636
7.394,224,32789,32781,32782,32775,32727,32682
7.394,225,32785,32815,32805,32798,32764,32722
7.402,226,32858,32824,32815,32811,32789,32754
7.402,227,32852,32820,32817,32816,32803,32776
7.419,228,32860,32856,32842,32833,32820,32795
7.421,229,32877,32873,32861,32852,32837,32813
7.430,230,32877,32878,32872,32865,32850,32830
7.430,231,32877,32887,32883,32877,32864,32844
7.449,232,32880,32890,32887,32884,32876,32858
7.454,233,32877,32891,32888,32886,32884,32868
7.454,234,32887,32898,32893,32891,32889,32877
7.478,235,32897,32903,32898,32898,32892,32884
7.481,236,32904,32906,32902,32900,32896,32889
7.502,237,32913,32911,32908,32904,32901,32895
7.502,238,32900,32920,32914,32910,32905,32900
7.502,239,32895,32934,32924,32920,32912,32906
7.510,240,32615,32744,32811,32848,32877,32890
7.531,241,32226,32416,32564,32660,32767,32824
7.531,242,32417,32427,32472,32535,32653,32737
7.531,243,32545,32517,32488,32501,32578,32662
7.540,244,32505,32444,32458,32468,32521,32595
7.560,245,32816,32499,32487,32479,32496,32550
7.560,246,32763,32636,32582,32547,32519,32542
7.560,247,32664,32781,32716,32658,32589,32571
7.591,248,32825,32818,32785,32743,32665,32621
7.617,249,32749,32784,32785,32774,32719,32671
7.617,250,32740,32824,32812,32802,32762,32717
7.617,251,32825,32819,32814,32812,32788,32751
7.648,252,32817,32819,32816,32816,32804,32775
7.649,253,32835,32860,32843,32835,32821,32796
7.651,254,32859,32878,32864,32855,32839,32815
7.651,255,32855,32890,32881,32873,32857,32833
7.652,0,32866,32901,32893,32888,32873,32850
7.656,1,32880,32908,32901,32898,32887,32866
7.657,2,32873,32907,32904,32902,32896,32879
7.657,3,32872,32905,32905,32904,32902,32888
7.678,4,32880,32909,32906,32908,32904,32896
7.678,5,32889,32912,32908,32908,32908,32903
7.687,6,32902,32912,32910,32909,32909,32905
7.687,7,32893,32919,32913,32912,32909,32906
7.729,8,32893,32934,32923,32918,32914,32910
7.729,9,32604,32743,32809,32845,32879,32893
7.729,10,32210,32416,32564,32659,32765,32824
7.729,11,32411,32428,32474,32537,32651,32737
7.729,12,32540,32523,32493,32504,32581,32662
7.758,13,32511,32459,32470,32478,32526,32598
7.758,14,32826,32512,32501,32491,32505,32558
7.758,15,32768,32650,32597,32559,32531,32551
7.759,16,32673,32799,32733,32674,32601,32581
7.774,17,32827,32823,32794,32755,32676,32632
7.774,18,32744,32784,32789,32780,32729,32681
7.786,19,32738,32829,32816,32807,32769,32725
7.789,20,32817,32818,32816,32815,32793,32757
7.803,21,32806,32814,32814,32816,32805,32779
7.832,22,32831,32857,32840,32833,32821,32798
7.833,23,32852,32872,32860,32851,32837,32816
7.834,24,32845,32882,32875,32867,32852,32831
7.847,25,32858,32895,32888,32881,32866,32846
7.849,26,32869,32898,32894,32891,32879,32860
7.849,27,32867,32899,32898,32896,32890,32872
7.855,28,32877,32904,32903,32901,32897,32883
7.869,29,32878,32906,32904,32902,32900,32892
7.870,30,32882,32909,32905,32904,32903,32897
7.878,31,32894,32909,32907,32906,32904,32899
7.894,32,32897,32910,32908,32907,32905,32900
7.896,33,32908,32923,32917,32912,32909,32904
7.912,34,32608,32736,32803,32838,32873,32886
7.912,35,32212,32411,32558,32653,32760,32818
7.917,36,32422,32425,32471,32533,32646,32732
7.943,37,32540,32517,32488,32501,32576,32658
7.945,38,32486,32445,32458,32469,32520,32593
7.961,39,32787,32497,32486,32477,32495,32550
7.969,40,32757,32635,32581,32545,32518,32541
7.978,41,32684,32781,32715,32658,32588,32568
7.980,42,32816,32806,32778,32737,32661,32618
7.980,43,32736,32769,32775,32765,32712,32667
7.991,44,32745,32813,32802,32792,32754,32708
7.997,45,32814,32807,32804,32802,32780,32742
8.004,46,32803,32805,32804,32805,32792,32766
8.004,47,32838,32845,32830,32822,32808,32785
8.014,48,32862,32860,32849,32839,32825,32803
8.028,49,32849,32870,32862,32854,32841,32819
8.030,50,32858,32880,32875,32869,32856,32834
8.038,51,32878,32886,32883,32879,32868,32849
8.068,52,32876,32890,32888,32884,32878,32861
8.070,53,32876,32890,32890,32887,32884,32871
8.079,54,32881,32889,32890,32888,32887,32877
8.079,55,32888,32895,32892,32891,32889,32882
8.082,56,32903,32906,32900,32896,32892,32888
8.091,57,32914,32911,32906,32902,32897,32893
8.091,58,32922,32918,32914,32909,32903,32899
8.106,59,32617,32761,32819,32848,32874,32885
8.107,60,32222,32487,32610,32690,32780,32828
8.121,61,32426,32465,32514,32574,32676,32751
8.138,62,32549,32497,32490,32519,32599,32678
8.138,63,32503,32444,32456,32475,32536,32611
8.141,64,32790,32497,32484,32476,32503,32563
8.153,65,32755,32611,32566,32534,32517,32546
8.181,66,32693,32770,32700,32644,32579,32568
8.181,67,32831,32801,32768,32725,32650,32613
8.183,68,32753,32763,32770,32757,32704,32659
8.198,69,32766,32816,32802,32790,32748,32702
8.201,70,32829,32808,32804,32801,32776,32737
8.201,71,32807,32802,32804,32805,32792,32763
8.212,72,32842,32839,32827,32821,32807,32783
8.237,73,32871,32850,32842,32835,32821,32800
8.239,74,32862,32863,32857,32849,32837,32816
8.240,75,32872,32878,32871,32864,32850,32830
8.247,76,32882,32883,32878,32875,32862,32844
8.250,77,32884,32886,32884,32882,32873,32857
8.267,78,32892,32887,32887,32886,32880,32867
8.267,79,32892,32886,32886,32886,32884,32875
8.272,80,32893,32891,32888,32888,32888,32880
8.303,81,32899,32895,32891,32890,32889,32884
8.305,82,32908,32895,32892,32891,32889,32887
8.305,83,32931,32907,32902,32898,32894,32891
8.324,84,32630,32855,32874,32880,32886,32888
8.326,85,32230,32759,32803,32827,32855,32871
8.327,86,32441,32625,32684,32733,32794,32832
8.327,87,32561,32421,32503,32582,32688,32758
8.343,88,32468,32413,32440,32487,32586,32673
8.350,89,32718,32495,32475,32474,32530,32606
8.351,90,32751,32548,32521,32503,32515,32565
8.358,91,32745,32745,32666,32611,32560,32569
8.371,92,32841,32782,32744,32696,32627,32603
8.379,93,32762,32728,32740,32726,32676,32641
8.393,94,32783,32785,32772,32760,32718,32679
8.393,95,32814,32762,32767,32765,32743,32709
8.399,96,32795,32754,32762,32764,32755,32730
8.424,97,32843,32797,32785,32779,32767,32748
8.427,98,32876,32809,32801,32794,32781,32763
8.427,99,32870,32829,32822,32811,32798,32779
8.441,100,32880,32847,32840,32830,32814,32795
8.445,101,32894,32855,32852,32845,32830,32811
8.445,102,32892,32863,32860,32857,32845,32826
8.455,103,32899,32868,32865,32864,32854,32839
8.468,104,32904,32866,32867,32866,32861,32850
8.473,105,32905,32869,32870,32868,32866,32857
8.486,106,32914,32876,32874,32871,32870,32862
8.486,107,32927,32884,32880,32876,32873,32867
8.499,108,32942,32895,32891,32885,32878,32874
8.506,109,32638,32898,32896,32891,32885,32880
8.531,110,32246,32896,32898,32894,32889,32886
8.531,111,32454,32699,32766,32809,32848,32865
8.532,112,32579,32378,32505,32611,32728,32790
8.557,113,32469,32405,32434,32495,32611,32699
8.562,114,32681,32492,32471,32473,32542,32625
8.562,115,32743,32496,32486,32479,32509,32572
8.565,116,32768,32705,32627,32577,32540,32562
8.575,117,32834,32747,32707,32660,32598,32584
8.584,118,32763,32699,32710,32693,32645,32617
8.586,119,32804,32773,32755,32737,32691,32655
8.594,120,32824,32746,32751,32747,32721,32687
8.603,121,32810,32742,32748,32749,32736,32710
8.617,122,32860,32793,32777,32768,32754,32730
8.617,123,32882,32801,32793,32785,32770,32748
8.646,124,32880,32817,32811,32803,32786,32765
8.652,125,32894,32841,32833,32824,32805,32784
8.653,126,32902,32848,32845,32838,32823,32801
8.673,127,32895,32854,32852,32848,32837,32815
8.691,128,32903,32862,32860,32856,32848,32830
8.692,129,32908,32864,32864,32862,32857,32843
8.692,130,32910,32866,32866,32866,32861,32851
8.692,131,32917,32871,32870,32868,32865,32858
8.703,132,32928,32878,32876,32873,32869,32863
8.704,133,32944,32893,32888,32883,32875,32869
8.712,134,32641,32899,32897,32891,32881,32876
8.712,135,32253,32898,32899,32893,32887,32884
8.720,136,32460,32699,32765,32809,32848,32863
8.743,137,32578,32375,32503,32610,32728,32789
8.746,138,32403,32402,32433,32493,32611,32700
8.746,139,32525,32493,32470,32471,32541,32625
8.752,140,32705,32489,32481,32474,32506,32570
8.778,141,32858,32684,32611,32565,32534,32558
8.781,142,32838,32741,32697,32651,32590,32580
8.781,143,32768,32714,32716,32695,32641,32614
8.792,144,32854,32782,32763,32742,32693,32653
8.794,145,32830,32760,32763,32758,32726,32688
8.807,146,32833,32766,32768,32766,32747,32717
8.807,147,32891,32802,32792,32783,32767,32741
8.821,148,32883,32804,32800,32796,32782,32760
8.823,149,32892,32825,32817,32811,32797,32777
8.838,150,32911,32848,32839,32829,32814,32793
8.838,151,32903,32850,32849,32843,32829,32809
8.849,152,32885,32848,32851,32849,32840,32821
8.875,153,32894,32856,32855,32854,32848,32832
8.875,154,32914,32866,32863,32861,32854,32843
8.877,155,32919,32873,32870,32868,32860,32852
8.901,156,32926,32881,32877,32874,32868,32860
8.902,157,32940,32895,32889,32884,32876,32868
8.923,158,32949,32909,32901,32895,32885,32877
8.923,159,32649,32913,32907,32903,32893,32885
8.927,160,32267,32914,32912,32909,32898,32894
8.932,161,32474,32716,32782,32825,32861,32877
8.933,162,32588,32389,32519,32625,32743,32804
8.946,163,32401,32412,32445,32507,32625,32714
8.951,164,32522,32500,32478,32482,32554,32638
8.960,165,32708,32483,32478,32476,32513,32580
8.960,166,32851,32657,32593,32553,32531,32562
8.984,167,32827,32725,32682,32635,32582,32577
8.984,168,32765,32726,32718,32691,32635,32609
9.025,169,32853,32797,32772,32748,32691,32652
9.025,170,32826,32773,32774,32767,32730,32691
9.025,171,32831,32783,32783,32779,32756,32722
9.025,172,32891,32816,32805,32797,32777,32749
9.025,173,32885,32813,32810,32806,32793,32768
9.027,174,32892,32839,32829,32823,32809,32786
9.028,175,32913,32870,32857,32845,32828,32805
9.045,176,32919,32877,32873,32863,32846,32823
9.068,177,32915,32882,32881,32876,32863,32840
9.068,178,32914,32888,32886,32883,32876,32854
9.068,179,32914,32885,32885,32885,32881,32866
9.070,180,32917,32889,32887,32888,32884,32875
9.087,181,32928,32895,32892,32891,32888,32881
9.087,182,32932,32897,32894,32893,32891,32886
9.115,183,32931,32899,32896,32894,32893,32889
9.115,184,32635,32908,32902,32899,32896,32892
9.133,185,32263,32922,32914,32909,32901,32899
9.133,186,32465,32723,32787,32829,32863,32881
9.133,187,32578,32395,32527,32632,32746,32809
9.145,188,32401,32424,32455,32515,32633,32720
9.146,189,32523,32515,32489,32493,32564,32646
9.158,190,32714,32497,32492,32489,32524,32590
9.158,191,32866,32654,32596,32558,32538,32571
9.174,192,32836,32727,32682,32638,32587,32584
9.185,193,32766,32752,32734,32702,32643,32617
9.196,194,32848,32810,32788,32760,32701,32660
9.196,195,32809,32774,32781,32775,32739,32699
9.201,196,32801,32782,32784,32783,32762,32730
9.218,197,32869,32804,32797,32794,32779,32754
9.219,198,32875,32806,32803,32801,32791,32770
9.219,199,32878,32839,32827,32819,32806,32786
9.249,200,32897,32870,32855,32843,32824,32804
9.251,201,32906,32877,32870,32862,32842,32821
9.268,202,32900,32879,32877,32873,32858,32837
9.268,203,32893,32885,32883,32880,32871,32851
9.268,204,32886,32882,32882,32882,32877,32862
9.283,205,32898,32889,32885,32885,32881,32872
9.285,206,32917,32902,32896,32893,32888,32880
9.285,207,32921,32903,32901,32898,32894,32886
9.302,208,32928,32909,32905,32902,32899,32892
9.312,209,32631,32920,32912,32908,32903,32897
9.323,210,32247,32927,32919,32916,32909,32904
9.323,211,32451,32728,32794,32836,32870,32885
9.330,212,32572,32399,32542,32642,32753,32814
9.343,213,32396,32422,32462,32522,32640,32728
9.374,214,32508,32513,32485,32493,32568,32651
9.375,215,32680,32456,32465,32470,32517,32588
9.385,216,32826,32551,32521,32501,32507,32553
9.385,217,32814,32668,32616,32575,32541,32552
9.385,218,32762,32773,32726,32674,32607,32583
9.386,219,32847,32819,32790,32753,32679,32634
9.397,220,32812,32786,32787,32780,32729,32681
9.404,221,32808,32820,32810,32803,32767,32723
9.413,222,32871,32824,32818,32814,32792,32755
9.413,223,32870,32816,32815,32817,32805,32777
9.432,224,32868,32853,32839,32832,32819,32796
9.448,225,32887,32877,32863,32853,32837,32814
9.453,226,32894,32886,32878,32871,32853,32831
9.453,227,32898,32898,32891,32884,32869,32849
9.456,228,32908,32908,32901,32896,32885,32866
9.481,229,32896,32905,32901,32901,32894,32878
9.482,230,32893,32904,32901,32902,32898,32887
9.482,231,32903,32904,32902,32902,32900,32892
9.492,232,32909,32907,32903,32902,32901,32896
9.517,233,32928,32921,32913,32908,32905,32902
9.548,234,32758,32930,32924,32918,32912,32907
9.548,235,32523,32932,32927,32923,32917,32912
9.548,236,32513,32732,32803,32843,32878,32893
9.548,237,32427,32407,32557,32654,32763,32824
9.553,238,32411,32428,32471,32532,32649,32736
9.553,239,32523,32517,32486,32499,32576,32659
9.554,240,32613,32444,32458,32469,32519,32592
9.567,241,32834,32500,32488,32479,32495,32548
9.576,242,32798,32640,32585,32547,32520,32541
9.576,243,32724,32796,32728,32667,32593,32573
9.603,244,32835,32825,32792,32752,32671,32624
9.605,245,32780,32783,32785,32778,32725,32674
9.619,246,32778,32832,32817,32807,32767,32720
9.619,247,32843,32825,32820,32817,32793,32754
9.620,248,32838,32817,32816,32818,32807,32779
9.632,249,32849,32857,32842,32834,32822,32798
9.641,250,32862,32873,32860,32851,32837,32814
9.643,251,32859,32879,32871,32865,32851,32830
9.652,252,32861,32885,32881,32877,32863,32845
9.661,253,32870,32891,32888,32885,32874,32857
9.661,254,32873,32896,32891,32890,32884,32868
9.677,255,32880,32902,32897,32895,32891,32878
9.679,0,32891,32909,32903,32901,32895,32886
9.696,1,32904,32918,32910,32908,32901,32894
9.696,2,32919,32926,32919,32915,32908,32902
9.722,3,32905,32929,32925,32920,32914,32908
9.724,4,32881,32935,32930,32925,32919,32914
9.738,5,32591,32741,32808,32847,32881,32895
9.738,6,32220,32416,32563,32659,32768,32827
9.738,7,32416,32431,32475,32537,32656,32739
9.747,8,32528,32517,32488,32502,32580,32663
9.756,9,32484,32440,32455,32467,32520,32596
9.769,10,32792,32494,32482,32475,32495,32550
9.771,11,32754,32635,32579,32543,32518,32540
9.777,12,32680,32791,32721,32660,32588,32570
9.786,13,32831,32828,32793,32748,32667,32621
9.799,14,32749,32793,32794,32782,32725,32674
9.801,15,32748,32836,32822,32811,32769,32722
9.808,16,32822,32825,32822,32820,32796,32757
9.834,17,32806,32812,32815,32818,32808,32780
9.838,18,32834,32854,32840,32832,32821,32799
9.838,19,32859,32881,32865,32853,32839,32817
9.852,20,32850,32889,32880,32871,32856,32833
9.853,21,32860,32899,32892,32886,32871,32849
9.867,22,32871,32906,32901,32898,32885,32865
9.867,23,32862,32901,32901,32901,32893,32877
9.869,24,32868,32902,32900,32900,32897,32886
9.886,25,32873,32906,32903,32903,32901,32892
9.894,26,32877,32909,32905,32905,32904,32896
9.894,27,32897,32917,32910,32909,32905,32901
9.908,28,32895,32919,32915,32912,32907,32906
9.916,29,32886,32923,32919,32915,32911,32909
9.928,30,32589,32730,32799,32838,32872,32888
9.928,31,32207,32412,32558,32652,32760,32820
9.953,32,32414,32430,32473,32533,32648,32734
9.955,33,32526,32517,32488,32501,32576,32658
9.972,34,32472,32443,32458,32468,32520,32594
9.972,35,32768,32495,32484,32477,32496,32551
9.974,36,32740,32634,32579,32544,32518,32541
9.989,37,32682,32786,32716,32657,32587,32569
9.990,38,32813,32814,32782,32740,32662,32619
9.990,39,32732,32778,32781,32771,32716,32668
10.006,40,32749,32824,32811,32801,32759,32713
10.007,41,32811,32815,32811,32810,32786,32748
10.007,42,32792,32806,32807,32809,32798,32771
10.024,43,32830,32846,32832,32825,32813,32789
10.033,44,32864,32871,32856,32846,32831,32808
10.047,45,32857,32884,32875,32865,32848,32825
10.072,46,32860,32894,32887,32881,32864,32842
10.072,47,32872,32898,32893,32890,32879,32858
10.074,48,32868,32895,32895,32893,32888,32870
10.089,49,32876,32899,32898,32896,32892,32879
10.089,50,32886,32902,32900,32899,32895,32887
10.089,51,32887,32906,32903,32901,32899,32894
10.101,52,32897,32914,32907,32905,32903,32898
10.108,53,32900,32916,32911,32909,32905,32900
10.121,54,32905,32920,32918,32912,32908,32904
10.121,55,32605,32730,32801,32836,32872,32885
10.127,56,32211,32410,32557,32651,32760,32817
10.152,57,32418,32425,32470,32533,32647,32730
10.154,58,32539,32515,32485,32501,32575,32657
10.154,59,32464,32443,32455,32467,32519,32594
10.170,60,32734,32496,32484,32475,32495,32550
10.170,61,32753,32639,32582,32545,32519,32540
10.194,62,32735,32794,32719,32660,32589,32570
10.208,63,32832,32826,32790,32746,32666,32621
10.210,64,32751,32790,32795,32780,32722,32672
10.211,65,32778,32829,32820,32808,32767,32718
10.215,66,32815,32814,32814,32814,32794,32753
10.219,67,32799,32804,32808,32811,32803,32776
10.227,68,32851,32846,32833,32825,32814,32794
10.236,69,32882,32870,32855,32845,32832,32812
10.249,70,32868,32876,32869,32861,32847,32826
10.249,71,32869,32883,32879,32872,32859,32839
10.259,72,32885,32894,32889,32884,32874,32853
10.272,73,32882,32896,32894,32891,32884,32867
10.274,74,32891,32898,32897,32895,32890,32877
10.274,75,32899,32900,32900,32898,32895,32884
10.301,76,32898,32904,32902,32900,32899,32889
10.302,77,32904,32906,32902,32901,32901,32894
10.327,78,32907,32907,32904,32903,32900,32898
10.327,79,32922,32916,32911,32908,32903,32900
10.330,80,32625,32728,32797,32833,32867,32881
10.335,81,32228,32410,32558,32649,32756,32815
10.347,82,32440,32428,32471,32534,32646,32729
10.347,83,32556,32518,32488,32506,32577,32656
10.358,84,32436,32443,32456,32470,32522,32594
10.368,85,32650,32489,32478,32472,32494,32549
10.376,86,32721,32616,32566,32534,32512,32538
10.385,87,32767,32762,32691,32639,32575,32562
10.396,88,32823,32803,32765,32722,32647,32608
10.398,89,32741,32773,32778,32761,32703,32657
10.408,90,32796,32808,32800,32789,32747,32701
10.408,91,32811,32798,32797,32795,32773,32735
10.432,92,32796,32793,32795,32797,32787,32759
10.440,93,32855,32830,32817,32811,32801,32777
10.440,94,32885,32852,32839,32830,32817,32794
10.458,95,32880,32864,32857,32847,32831,32811
10.458,96,32879,32878,32872,32863,32848,32827
10.466,97,32892,32891,32884,32877,32865,32843
10.466,98,32898,32898,32894,32889,32878,32858
10.473,99,32905,32902,32900,32897,32887,32871
10.483,100,32907,32897,32900,32898,32893,32882
10.508,101,32915,32899,32900,32898,32897,32887
10.525,102,32925,32906,32904,32901,32900,32892
10.525,103,32924,32909,32907,32905,32901,32898
10.525,104,32941,32919,32915,32912,32905,32903
10.556,105,32642,32832,32864,32879,32891,32896
10.564,106,32239,32676,32747,32791,32840,32866
10.564,107,32446,32573,32632,32688,32763,32813
10.566,108,32566,32447,32502,32566,32664,32738
10.571,109,32401,32429,32449,32487,32575,32658
10.572,110,32554,32498,32481,32478,32525,32597
10.572,111,32726,32568,32536,32514,32518,32564
10.581,112,32860,32752,32674,32620,32568,32571
10.588,113,32841,32790,32751,32706,32635,32608
10.608,114,32760,32751,32759,32742,32687,32649
10.608,115,32844,32802,32789,32776,32732,32690
10.609,116,32821,32775,32780,32780,32758,32723
10.620,117,32810,32765,32773,32777,32769,32744
10.633,118,32875,32809,32796,32791,32781,32760
10.633,119,32897,32830,32818,32809,32796,32776
10.642,120,32905,32850,32841,32830,32813,32794
10.669,121,32908,32868,32862,32850,32832,32811
10.672,122,32916,32874,32874,32866,32850,32827
10.672,123,32918,32881,32880,32876,32865,32842
10.677,124,32921,32889,32886,32883,32875,32857
10.688,125,32923,32887,32887,32886,32881,32869
10.698,126,32932,32891,32890,32889,32887,32877
10.698,127,32934,32892,32892,32891,32890,32883
10.703,128,32930,32890,32892,32890,32890,32886
10.721,129,32952,32902,32898,32894,32892,32888
10.729,130,32652,32887,32891,32892,32891,32890
10.729,131,32250,32844,32863,32872,32880,32886
10.741,132,32461,32666,32732,32780,32829,32857
10.747,133,32579,32391,32503,32599,32713,32780
10.747,134,32391,32404,32434,32489,32600,32690
10.758,135,32521,32488,32467,32469,32533,32617
10.809,136,32722,32511,32494,32483,32506,32567
10.811,137,32883,32710,32633,32581,32543,32560
10.827,138,32840,32755,32715,32667,32603,32587
10.827,139,32764,32723,32729,32710,32655,32623
10.828,140,32867,32795,32776,32756,32706,32665
10.832,141,32834,32767,32771,32767,32738,32701
10.839,142,32827,32763,32769,32769,32755,32727
10.839,143,32895,32804,32793,32785,32772,32748
10.839,144,32900,32811,32805,32799,32787,32765
10.850,145,32901,32832,32825,32816,32802,32783
10.850,146,32906,32852,32844,32835,32819,32800
10.860,147,32909,32852,32851,32846,32833,32814
10.866,148,32911,32861,32859,32855,32846,32827
10.879,149,32917,32870,32867,32864,32857,32840
10.914,150,32912,32867,32868,32867,32861,32850
10.914,151,32907,32865,32868,32868,32863,32856
10.914,152,32912,32863,32866,32865,32865,32861
10.920,153,32921,32868,32867,32865,32865,32864
10.922,154,32938,32878,32874,32872,32868,32865
10.922,155,32629,32880,32880,32876,32871,32870
10.944,156,32240,32882,32883,32878,32874,32875
10.944,157,32455,32688,32752,32795,32833,32853
10.954,158,32565,32367,32494,32600,32714,32777
10.954,159,32387,32397,32425,32485,32600,32688
10.974,160,32518,32487,32462,32464,32533,32616
10.974,161,32711,32492,32480,32471,32501,32564
10.987,162,32877,32698,32620,32569,32533,32554
10.987,163,32839,32746,32704,32656,32592,32578
10.993,164,32758,32714,32719,32699,32644,32614
11.019,165,32856,32788,32767,32747,32696,32656
11.019,166,32823,32758,32762,32759,32728,32691
11.020,167,32819,32755,32761,32763,32747,32718
11.032,168,32892,32800,32786,32779,32765,32740
11.034,169,32899,32809,32801,32795,32781,32759
11.044,170,32896,32831,32823,32814,32798,32776
11.044,171,32904,32854,32843,32835,32817,32795
11.058,172,32914,32857,32855,32849,32833,32812
11.072,173,32911,32863,32862,32857,32846,32826
11.074,174,32907,32870,32868,32864,32858,32840
11.079,175,32910,32872,32870,32869,32865,32852
11.092,176,32913,32873,32872,32873,32869,32859
11.101,177,32919,32871,32872,32873,32871,32865
11.113,178,32925,32876,32875,32873,32873,32869
11.114,179,32936,32891,32885,32880,32876,32872
11.138,180,32635,32899,32893,32888,32882,32877
11.140,181,32246,32899,32895,32894,32886,32884
11.157,182,32449,32699,32764,32810,32845,32864
11.157,183,32570,32376,32505,32610,32726,32790
11.159,184,32390,32404,32433,32493,32609,32699
11.167,185,32507,32491,32468,32471,32540,32624
11.172,186,32706,32492,32482,32475,32507,32569
11.178,187,32875,32695,32618,32569,32537,32559
11.187,188,32832,32745,32703,32655,32594,32582
11.201,189,32751,32716,32721,32699,32646,32615
11.201,190,32847,32787,32768,32747,32697,32656
11.207,191,32815,32760,32764,32760,32729,32692
11.219,192,32820,32767,32770,32767,32750,32720
11.228,193,32890,32809,32797,32787,32770,32744
11.253,194,32887,32809,32805,32799,32785,32763
11.254,195,32886,32832,32824,32816,32801,32780
11.256,196,32892,32854,32845,32835,32820,32798
11.278,197,32896,32856,32854,32848,32834,32813
11.284,198,32904,32868,32864,32860,32848,32828
11.285,199,32901,32874,32871,32869,32860,32842
11.298,200,32882,32863,32865,32867,32864,32852
11.303,201,32889,32866,32865,32866,32865,32857
11.311,202,32905,32875,32871,32869,32867,32861
11.311,203,32913,32880,32877,32873,32871,32867
11.317,204,32935,32896,32890,32883,32877,32873
11.326,205,32633,32911,32903,32896,32886,32881
11.327,206,32235,32912,32908,32904,32894,32888
11.339,207,32444,32708,32774,32819,32854,32869
11.347,208,32563,32379,32508,32616,32733,32796
11.383,209,32373,32401,32432,32495,32615,32705
11.383,210,32496,32493,32468,32473,32544,32629
11.383,211,32700,32487,32478,32473,32506,32572
11.390,212,32860,32663,32596,32554,32528,32557
11.391,213,32824,32727,32685,32638,32582,32575
11.417,214,32748,32729,32722,32694,32637,32608
11.417,215,32832,32788,32770,32746,32691,32650
11.417,216,32800,32760,32765,32761,32727,32688
11.447,217,32807,32778,32776,32774,32752,32719
11.447,218,32876,32810,32798,32792,32772,32746
11.447,219,32879,32809,32806,32801,32787,32764
11.447,220,32882,32839,32830,32820,32804,32782
11.452,221,32889,32866,32854,32842,32824,32802
11.474,222,32892,32871,32865,32858,32842,32818
11.474,223,32900,32880,32875,32871,32858,32835
11.508,224,32912,32888,32885,32881,32871,32852
11.508,225,32901,32888,32886,32884,32879,32864
11.508,226,32894,32893,32888,32888,32884,32872
11.508,227,32900,32893,32890,32890,32887,32878
11.508,228,32909,32891,32890,32889,32888,32884
11.538,229,32929,32904,32899,32895,32892,32889
11.538,230,32630,32915,32908,32904,32898,32894
11.538,231,32238,32922,32915,32911,32905,32899
11.540,232,32441,32721,32784,32827,32865,32880
11.550,233,32556,32386,32517,32626,32743,32806
11.550,234,32371,32409,32441,32504,32623,32714
11.578,235,32496,32501,32476,32479,32553,32638
11.578,236,32699,32485,32480,32476,32512,32579
11.586,237,32857,32650,32590,32551,32529,32561
11.587,238,32818,32724,32679,32633,32580,32575
11.623,239,32746,32743,32729,32696,32636,32608
11.623,240,32838,32804,32782,32754,32695,32654
11.628,241,32800,32774,32778,32772,32735,32695
11.629,242,32789,32782,32783,32782,32759,32726
11.629,243,32862,32807,32799,32795,32777,32750
11.631,244,32887,32818,32812,32807,32793,32770
11.647,245,32889,32852,32839,32828,32812,32789
11.647,246,32885,32870,32861,32850,32832,32808
11.663,247,32896,32880,32875,32868,32850,32826
11.667,248,32905,32893,32888,32883,32866,32844
11.682,249,32905,32899,32895,32892,32880,32861
11.682,250,32902,32896,32896,32894,32889,32874
11.692,251,32903,32897,32897,32897,32894,32881
11.701,252,32908,32902,32900,32898,32897,32888
11.723,253,32921,32908,32905,32902,32899,32893
11.726,254,32932,32915,32912,32909,32903,32900
11.726,255,32629,32923,32920,32914,32909,32905
11.741,0,32248,32932,32927,32921,32915,32910
11.742,1,32453,32731,32794,32838,32875,32891
11.744,2,32563,32399,32528,32637,32754,32817
11.761,3,32377,32422,32452,32515,32635,32725
11.762,4,32496,32509,32485,32489,32564,32648
11.770,5,32687,32465,32469,32472,32516,32586
11.782,6,32845,32599,32552,32524,32517,32557
11.783,7,32827,32705,32655,32609,32561,32565
11.793,8,32763,32768,32736,32692,32626,32600
11.807,9,32844,32813,32791,32758,32691,32648
11.807,10,32806,32777,32786,32779,32736,32691
11.816,11,32803,32802,32800,32795,32767,32727
11.842,12,32870,32819,32811,32807,32788,32756
11.844,13,32879,32816,32814,32814,32802,32776
11.862,14,32880,32850,32839,32831,32817,32794
11.862,15,32888,32874,32863,32851,32835,32812
11.865,16,32892,32881,32876,32868,32853,32829
11.865,17,32891,32889,32885,32881,32868,32845
11.880,18,32899,32899,32895,32890,32880,32860
11.880,19,32906,32900,32899,32896,32890,32873
11.892,20,32907,32902,32901,32901,32896,32885
11.901,21,32902,32901,32900,32900,32899,32891
11.914,22,32907,32902,32900,32900,32900,32893
11.914,23,32927,32917,32910,32907,32902,32899
11.925,24,32630,32925,32919,32914,32907,32904
11.934,25,32242,32927,32924,32921,32913,32909
11.961,26,32444,32727,32793,32836,32873,32890
11.962,27,32561,32400,32529,32636,32753,32815
11.963,28,32382,32428,32456,32518,32636,32724
11.980,29,32500,32513,32489,32493,32566,32649
11.991,30,32690,32452,32463,32470,32515,32587
11.991,31,32849,32560,32526,32506,32507,32553
12.004,32,32827,32684,32631,32587,32545,32555
12.005,33,32760,32783,32737,32686,32615,32590
12.005,34,32840,32818,32795,32760,32686,32640
12.009,35,32800,32772,32782,32777,32731,32686
12.026,36,32785,32798,32795,32791,32763,32724
12.026,37,32854,32803,32800,32798,32782,32751
12.041,38,32879,32804,32802,32803,32793,32769
12.041,39,32877,32845,32830,32821,32808,32787
12.050,40,32880,32868,32856,32843,32826,32805
12.074,41,32892,32880,32872,32862,32845,32823
12.074,42,32894,32894,32887,32880,32863,32840
12.076,43,32899,32903,32898,32893,32879,32857
12.101,44,32898,32897,32898,32897,32888,32872
12.102,45,32903,32900,32900,32897,32893,32883
12.127,46,32916,32908,32905,32902,32899,32890
12.127,47,32923,32913,32910,32907,32904,32895
12.130,48,32936,32925,32918,32913,32909,32902
12.131,49,32639,32933,32926,32922,32914,32910
12.141,50,32255,32938,32934,32929,32919,32917
12.141,51,32462,32740,32808,32847,32882,32898
12.146,52,32575,32408,32547,32650,32765,32826
12.159,53,32390,32427,32465,32528,32647,32736
12.159,54,32510,32517,32492,32498,32575,32659
12.169,55,32695,32437,32456,32466,32517,32591
12.194,56,32849,32501,32488,32478,32494,32548
12.197,57,32826,32646,32592,32551,32523,32542
12.214,58,32764,32796,32730,32669,32595,32574
12.216,59,32849,32825,32796,32754,32673,32627
12.217,60,32811,32780,32788,32779,32728,32677
12.231,61,32804,32826,32815,32805,32767,32722
12.231,62,32869,32820,32818,32815,32792,32755
12.231,63,32877,32814,32814,32817,32806,32778
12.242,64,32884,32859,32842,32835,32822,32797
12.252,65,32896,32883,32869,32856,32839,32816
12.264,66,32899,32890,32884,32874,32858,32834
12.264,67,32898,32896,32893,32888,32873,32851
12.274,68,32904,32903,32898,32896,32885,32866
12.286,69,32907,32902,32900,32900,32893,32878
12.296,70,32915,32905,32903,32902,32898,32888
12.297,71,32916,32906,32904,32903,32901,32894
12.321,72,32921,32910,32907,32906,32903,32897
12.323,73,32942,32926,32919,32913,32909,32903
12.324,74,32642,32934,32927,32922,32914,32909
12.339,75,32256,32938,32933,32929,32919,32916
12.339,76,32467,32741,32809,32849,32883,32898
12.352,77,32575,32407,32549,32652,32766,32827
12.360,78,32381,32419,32461,32525,32647,32735
12.360,79,32508,32510,32484,32494,32573,32657
12.372,80,32697,32433,32451,32462,32515,32590
12.381,81,32837,32483,32473,32467,32487,32543
12.397,82,32816,32626,32572,32535,32511,32531
12.397,83,32762,32791,32721,32657,32584,32564
12.406,84,32845,32821,32791,32746,32663,32617
12.429,85,32812,32778,32784,32774,32719,32669
12.431,86,32815,32833,32817,32805,32763,32715
12.432,87,32879,32824,32822,32817,32791,32751
12.451,88,32884,32813,32816,32818,32806,32777
12.452,89,32892,32863,32845,32837,32823,32797
12.453,90,32905,32887,32871,32861,32842,32817
12.454,91,32909,32896,32888,32879,32861,32837
12.471,92,32918,32909,32903,32895,32878,32855
12.481,93,32921,32915,32911,32906,32894,32872
12.490,94,32902,32904,32905,32906,32901,32884
12.490,95,32908,32905,32904,32905,32903,32892
12.502,96,32930,32912,32908,32907,32905,32899
12.512,97,32932,32913,32910,32909,32908,32904
12.522,98,32936,32919,32916,32912,32910,32906
12.522,99,32683,32927,32921,32918,32914,32911
12.532,100,32360,32938,32929,32925,32919,32916
12.553,101,32496,32742,32810,32849,32881,32895
12.571,102,32536,32406,32557,32655,32766,32826
12.571,103,32403,32420,32464,32529,32650,32737
12.574,104,32519,32511,32481,32495,32574,32658
12.579,105,32674,32435,32451,32462,32514,32590
12.590,106,32847,32487,32476,32469,32489,32544
12.590,107,32819,32631,32574,32538,32513,32534
12.603,108,32754,32792,32722,32660,32585,32566
12.604,109,32831,32810,32783,32741,32662,32617
12.617,110,32786,32765,32771,32765,32714,32666
12.617,111,32804,32827,32809,32798,32757,32711
12.627,112,32862,32814,32812,32808,32784,32746
12.637,113,32848,32796,32800,32804,32795,32768
12.638,114,32866,32847,32829,32821,32809,32786
12.647,115,32888,32872,32855,32843,32827,32804
12.676,116,32882,32873,32867,32860,32843,32821
12.678,117,32881,32879,32875,32871,32857,32837
12.693,118,32896,32887,32883,32879,32871,32850
12.693,119,32903,32895,32890,32887,32880,32864
12.693,120,32911,32908,32900,32897,32887,32876
12.727,121,32910,32906,32903,32902,32895,32885
12.728,122,32913,32902,32902,32901,32899,32891
12.729,123,32930,32913,32908,32904,32902,32897
12.729,124,32747,32917,32912,32909,32905,32901
12.731,125,32514,32921,32914,32913,32909,32905
12.742,126,32518,32725,32795,32834,32869,32886
12.751,127,32427,32394,32546,32643,32753,32815
12.753,128,32402,32408,32454,32518,32637,32724
12.771,129,32514,32496,32468,32482,32562,32646
12.816,130,32584,32417,32435,32447,32501,32577
12.816,131,32787,32469,32459,32452,32474,32531
12.816,132,32779,32612,32554,32519,32497,32519
12.816,133,32738,32772,32699,32639,32567,32549
12.816,134,32843,32812,32776,32731,32647,32602
12.816,135,32781,32775,32778,32764,32706,32655
12.822,136,32777,32815,32804,32793,32751,32702
12.831,137,32837,32799,32800,32800,32777,32738
12.844,138,32831,32782,32788,32793,32786,32759
12.844,139,32852,32827,32812,32807,32797,32776
12.873,140,32893,32871,32848,32835,32818,32795
12.873,141,32894,32885,32873,32859,32840,32816
12.884,142,32884,32886,32883,32875,32858,32834
12.884,143,32897,32895,32889,32887,32874,32851
12.884,144,32890,32891,32889,32891,32883,32865
12.918,145,32891,32893,32892,32893,32887,32875
12.933,146,32913,32904,32898,32897,32892,32883
12.933,147,32920,32909,32904,32901,32896,32890
12.933,148,32926,32915,32910,32906,32902,32897
12.933,149,32821,32920,32914,32910,32906,32902
12.947,150,32691,32929,32923,32917,32912,32906
12.947,151,32570,32739,32807,32843,32877,32888
12.949,152,32349,32409,32559,32655,32763,32821
12.956,153,32418,32421,32468,32531,32648,32734
12.972,154,32530,32508,32480,32494,32574,32657
12.972,155,32538,32424,32443,32456,32513,32589
12.983,156,32784,32477,32468,32462,32484,32541
12.992,157,32785,32628,32570,32533,32508,32531
13.001,158,32740,32789,32714,32653,32580,32561
13.001,159,32843,32819,32786,32741,32658,32613
13.023,160,32768,32779,32785,32773,32715,32665
13.026,161,32772,32818,32809,32799,32759,32711
13.046,162,32838,32810,32808,32807,32784,32746
13.046,163,32851,32809,32809,32811,32799,32770
13.048,164,32879,32857,32840,32830,32816,32791
13.055,165,32898,32885,32868,32855,32837,32811
13.066,166,32895,32897,32888,32877,32857,32832
13.067,167,32892,32907,32901,32893,32875,32851
13.081,168,32905,32911,32907,32904,32890,32868
13.083,169,32894,32899,32902,32904,32898,32881
13.099,170,32886,32898,32901,32901,32901,32890
13.099,171,32901,32905,32904,32902,32902,32894
13.108,172,32913,32905,32903,32903,32901,32898
13.118,173,32919,32911,32906,32906,32903,32902
13.143,174,32884,32914,32910,32908,32906,32904
13.143,175,32846,32921,32917,32912,32909,32907
13.145,176,32588,32726,32798,32835,32870,32886
13.163,177,32236,32396,32548,32645,32755,32816
13.163,178,32411,32412,32457,32522,32640,32727
13.164,179,32530,32502,32472,32487,32565,32649
13.175,180,32481,32425,32442,32452,32507,32582
13.184,181,32747,32478,32468,32460,32481,32537
13.194,182,32755,32626,32567,32531,32504,32526
13.194,183,32728,32787,32712,32651,32576,32558
13.203,184,32819,32809,32778,32735,32654,32610
13.214,185,32733,32766,32774,32763,32708,32660
13.215,186,32765,32814,32802,32791,32751,32705
13.227,187,32813,32801,32799,32798,32777,32739
13.235,188,32803,32791,32793,32797,32788,32762
13.262,189,32849,32837,32821,32815,32802,32781
13.271,190,32881,32870,32852,32840,32823,32799
13.271,191,32872,32883,32873,32862,32844,32819
13.283,192,32866,32889,32884,32877,32861,32836
13.283,193,32878,32894,32890,32887,32875,32852
13.283,194,32872,32888,32890,32890,32883,32865
13.307,195,32875,32889,32890,32890,32888,32875
13.307,196,32893,32895,32893,32893,32891,32882
13.318,197,32895,32899,32896,32895,32893,32886
13.318,198,32902,32905,32900,32899,32895,32890
13.318,199,32905,32912,32907,32904,32898,32896
13.343,200,32896,32924,32917,32910,32905,32901
13.344,201,32596,32730,32800,32835,32869,32882
13.375,202,32211,32400,32552,32647,32756,32814
13.375,203,32408,32412,32460,32522,32641,32726
13.375,204,32530,32502,32475,32487,32565,32649
13.397,205,32460,32430,32446,32455,32509,32583
13.420,206,32717,32479,32469,32463,32483,32538
13.420,207,32743,32625,32566,32532,32505,32529
13.420,208,32745,32792,32713,32651,32577,32560
13.420,209,32834,32825,32787,32741,32658,32612
13.432,210,32747,32784,32790,32777,32716,32665
13.432,211,32781,32824,32816,32806,32762,32713
13.433,212,32811,32805,32807,32809,32788,32748
13.434,213,32784,32784,32793,32800,32795,32769
13.450,214,32837,32827,32814,32810,32804,32784
13.451,215,32888,32867,32847,32834,32821,32800
13.459,216,32882,32884,32873,32859,32841,32819
13.472,217,32873,32894,32888,32878,32859,32837
13.472,218,32889,32904,32898,32893,32876,32854
13.502,219,32887,32904,32902,32901,32889,32869
13.504,220,32886,32900,32901,32901,32897,32881
13.515,221,32886,32896,32897,32898,32899,32889
13.521,222,32890,32898,32897,32898,32899,32893
13.521,223,32913,32907,32903,32902,32901,32895
13.535,224,32914,32920,32914,32909,32903,32900
13.535,225,32909,32932,32926,32919,32912,32906
13.546,226,32615,32736,32807,32844,32876,32889
13.546,227,32220,32406,32557,32653,32762,32821
13.559,228,32417,32419,32465,32529,32647,32733
13.569,229,32537,32508,32480,32493,32573,32656
13.580,230,32445,32433,32450,32460,32514,32591
13.580,231,32684,32479,32472,32466,32487,32545
13.592,232,32737,32619,32562,32529,32506,32531
13.612,233,32766,32783,32703,32644,32574,32559
13.614,234,32841,32826,32785,32738,32654,32611
13.614,235,32748,32788,32793,32777,32714,32665
13.633,236,32782,32817,32811,32802,32759,32712
13.635,237,32814,32802,32804,32805,32785,32747
13.642,238,32813,32800,32804,32806,32796,32769
13.642,239,32865,32846,32830,32823,32810,32787
13.653,240,32896,32876,32858,32847,32830,32807
13.666,241,32894,32889,32880,32868,32850,32826
13.667,242,32882,32896,32893,32884,32866,32843
13.674,243,32888,32899,32897,32894,32880,32858
13.687,244,32890,32901,32900,32899,32891,32873
13.689,245,32899,32908,32906,32903,32898,32886
13.705,246,32908,32905,32905,32903,32901,32893
13.705,247,32905,32904,32903,32902,32902,32896
13.717,248,32902,32905,32904,32903,32903,32898
13.739,249,32902,32909,32906,32904,32904,32901
13.741,250,32913,32924,32915,32911,32906,32905
13.758,251,32611,32726,32797,32834,32868,32884
13.759,252,32217,32396,32548,32643,32754,32814
13.761,253,32423,32417,32461,32523,32639,32726
13.776,254,32533,32503,32476,32489,32566,32650
13.776,255,32372,32423,32441,32453,32508,32584
13.785,0,32538,32473,32463,32459,32480,32538
13.796,1,32700,32609,32552,32521,32499,32525
13.806,2,32836,32766,32689,32633,32565,32551
13.806,3,32833,32814,32773,32727,32644,32601
13.811,4,32742,32784,32786,32768,32705,32654
13.828,5,32821,32816,32808,32797,32753,32703
13.833,6,32816,32809,32807,32806,32781,32739
13.833,7,32829,32813,32812,32812,32798,32766
13.857,8,32897,32855,32839,32831,32816,32790
13.869,9,32904,32879,32863,32853,32834,32811
13.872,10,32905,32890,32882,32873,32853,32830
13.872,11,32909,32905,32899,32891,32872,32849
13.872,12,32918,32914,32910,32904,32889,32865
13.890,13,32914,32912,32910,32910,32900,32879
13.890,14,32908,32911,32910,32912,32907,32892
13.895,15,32897,32898,32902,32906,32906,32898
13.909,16,32901,32893,32896,32898,32902,32899
13.921,17,32926,32910,32904,32899,32902,32900
13.929,18,32928,32921,32913,32907,32906,32903
13.932,19,32933,32927,32920,32916,32910,32906
13.941,20,32636,32736,32805,32842,32873,32888
13.950,21,32231,32408,32559,32653,32761,32820
13.972,22,32430,32417,32466,32529,32647,32732
13.974,23,32551,32510,32481,32496,32573,32656
13.974,24,32366,32436,32451,32463,32516,32591
14.004,25,32506,32488,32477,32469,32490,32547
14.006,26,32735,32641,32579,32541,32515,32538
14.023,27,32901,32790,32715,32657,32584,32565
14.024,28,32826,32813,32781,32739,32659,32616
14.028,29,32746,32791,32794,32777,32718,32668
14.028,30,32869,32837,32824,32812,32767,32716
14.028,31,32826,32817,32818,32818,32794,32753
14.047,32,32814,32802,32810,32814,32805,32777
14.047,33,32897,32845,32831,32826,32818,32795
14.047,34,32918,32878,32860,32849,32834,32813
14.060,35,32911,32890,32881,32870,32851,32830
14.065,36,32906,32897,32893,32886,32868,32847
14.105,37,32914,32902,32900,32896,32883,32862
14.105,38,32906,32901,32901,32900,32894,32873
14.105,39,32916,32914,32909,32906,32901,32885
14.105,40,32932,32919,32914,32911,32906,32895
14.113,41,32923,32910,32911,32911,32908,32901
14.128,42,32912,32900,32905,32905,32908,32904
14.128,43,32919,32902,32902,32901,32906,32903
14.149,44,32942,32919,32910,32906,32906,32904
14.149,45,32629,32727,32794,32831,32866,32884
14.156,46,32233,32402,32551,32645,32753,32814
14.156,47,32453,32427,32469,32531,32642,32727
14.166,48,32555,32518,32486,32503,32572,32655
14.192,49,32363,32435,32451,32466,32517,32591
14.211,50,32504,32485,32476,32469,32491,32547
14.211,51,32704,32619,32565,32533,32510,32534
14.211,52,32881,32764,32692,32639,32573,32558
14.230,53,32849,32817,32775,32729,32648,32607
14.230,54,32756,32801,32798,32775,32712,32661
14.230,55,32846,32828,32819,32806,32761,32710
14.230,56,32821,32816,32815,32815,32789,32748
14.243,57,32838,32822,32821,32821,32807,32776
14.249,58,32910,32859,32844,32837,32824,32797
14.249,59,32907,32877,32863,32855,32841,32816
14.258,60,32906,32891,32882,32873,32856,32834
14.272,61,32911,32905,32897,32889,32871,32851
14.280,62,32922,32911,32908,32901,32887,32867
14.281,63,32928,32917,32916,32911,32901,32880
14.292,64,32920,32921,32919,32917,32910,32892
14.304,65,32900,32904,32907,32911,32910,32900
14.304,66,32906,32899,32902,32906,32907,32903
14.329,67,32934,32914,32910,32909,32908,32906
14.331,68,32941,32920,32916,32911,32910,32909
14.348,69,32941,32924,32921,32916,32912,32910
14.348,70,32628,32771,32826,32855,32883,32894
14.348,71,32238,32515,32631,32706,32793,32840
14.359,72,32452,32486,32535,32594,32693,32766
14.370,73,32553,32488,32493,32528,32611,32690
14.370,74,32360,32430,32448,32471,32541,32618
14.381,75,32496,32487,32474,32467,32502,32567
14.391,76,32706,32599,32552,32522,32511,32545
14.395,77,32884,32756,32681,32629,32569,32562
14.410,78,32836,32801,32761,32715,32640,32606
14.410,79,32745,32783,32784,32761,32701,32655
14.422,80,32850,32827,32814,32800,32751,32702
14.449,81,32814,32804,32807,32808,32781,32739
14.451,82,32809,32799,32803,32806,32794,32765
14.451,83,32891,32836,32823,32819,32807,32785
14.462,84,32902,32855,32844,32836,32823,32801
14.462,85,32898,32876,32866,32855,32840,32818
14.462,86,32905,32896,32885,32875,32857,32835
14.480,87,32919,32901,32896,32890,32874,32851
14.483,88,32923,32906,32903,32900,32887,32866
14.508,89,32916,32913,32909,32907,32897,32880
14.517,90,32893,32896,32900,32903,32901,32889
14.517,91,32893,32887,32890,32895,32898,32893
14.529,92,32919,32900,32896,32895,32896,32894
14.540,93,32926,32909,32903,32899,32898,32895
14.562,94,32931,32913,32910,32905,32901,32900
14.562,95,32622,32801,32842,32861,32879,32890
14.564,96,32225,32612,32697,32752,32814,32848
14.581,97,32431,32534,32588,32645,32729,32787
14.582,98,32548,32452,32488,32542,32636,32713
14.582,99,32373,32426,32443,32475,32555,32636
14.582,100,32497,32489,32473,32469,32509,32579
14.595,101,32701,32563,32529,32506,32506,32549
14.605,102,32886,32727,32655,32605,32555,32557
14.605,103,32835,32778,32737,32691,32621,32594
14.610,104,32742,32767,32765,32740,32680,32638
14.634,105,32835,32806,32794,32778,32730,32683
14.636,106,32793,32775,32781,32781,32758,32719
14.654,107,32801,32782,32784,32785,32773,32744
14.654,108,32881,32817,32805,32799,32787,32764
14.655,109,32886,32830,32822,32814,32802,32782
14.683,110,32893,32860,32849,32836,32820,32799
14.683,111,32908,32887,32874,32861,32841,32818
14.696,112,32907,32888,32884,32878,32859,32836
14.697,113,32881,32874,32878,32879,32869,32850
14.703,114,32881,32875,32877,32877,32875,32861
14.703,115,32900,32884,32881,32880,32880,32869
14.718,116,32906,32894,32888,32886,32885,32875
14.718,117,32915,32903,32897,32893,32889,32882
14.732,118,32927,32904,32903,32898,32893,32889
14.732,119,32933,32905,32904,32900,32897,32894
14.744,120,32622,32864,32879,32884,32891,32891
14.753,121,32223,32792,32826,32845,32867,32878
14.764,122,32425,32636,32697,32748,32807,32841
14.764,123,32544,32400,32493,32582,32693,32763
14.777,124,32365,32404,32432,32482,32587,32676
14.799,125,32489,32484,32464,32465,32526,32606
14.801,126,32702,32524,32499,32485,32504,32560
14.801,127,32883,32725,32643,32590,32545,32558
14.820,128,32831,32770,32728,32679,32610,32591
14.820,129,32746,32740,32745,32723,32667,32631
14.824,130,32853,32807,32788,32770,32719,32674
14.825,131,32815,32779,32783,32781,32750,32711
14.843,132,32809,32778,32783,32784,32769,32738
14.844,133,32880,32813,32802,32797,32785,32761
14.857,134,32875,32807,32805,32802,32794,32776
14.857,135,32876,32829,32822,32814,32804,32787
14.871,136,32899,32867,32853,32840,32823,32803
14.880,137,32899,32871,32866,32857,32842,32820
14.880,138,32883,32864,32865,32863,32853,32833
14.891,139,32889,32866,32867,32866,32861,32846
14.919,140,32892,32865,32867,32867,32865,32855
14.921,141,32894,32873,32871,32870,32868,32860
14.939,142,32911,32887,32881,32878,32873,32867
14.939,143,32923,32891,32886,32883,32878,32873
14.939,144,32930,32894,32890,32886,32881,32878
14.939,145,32623,32855,32869,32874,32877,32877
14.954,146,32222,32786,32818,32836,32857,32866
14.954,147,32423,32627,32691,32739,32797,32830
14.972,148,32543,32392,32487,32576,32685,32754
14.980,149,32360,32397,32424,32476,32581,32669
14.980,150,32480,32474,32453,32456,32518,32599
14.984,151,32682,32481,32469,32463,32488,32549
15.000,152,32851,32637,32578,32539,32511,32535
15.009,153,32808,32710,32666,32620,32564,32556
15.031,154,32738,32737,32720,32686,32625,32594
15.031,155,32856,32804,32779,32749,32688,32642
15.034,156,32810,32771,32775,32768,32729,32684
15.053,157,32777,32766,32773,32773,32752,32716
15.055,158,32864,32796,32788,32784,32770,32742
15.056,159,32901,32818,32807,32800,32786,32762
15.062,160,32896,32851,32837,32824,32806,32782
15.075,161,32905,32879,32867,32852,32830,32804
15.079,162,32912,32887,32882,32873,32852,32825
15.079,163,32883,32872,32876,32877,32865,32841
15.096,164,32888,32873,32874,32876,32872,32854
15.106,165,32916,32885,32882,32880,32877,32865
15.116,166,32918,32893,32891,32886,32883,32873
15.116,167,32915,32898,32895,32891,32888,32880
15.126,168,32928,32904,32900,32897,32892,32885
15.153,169,32952,32920,32914,32908,32899,32892
15.155,170,32643,32901,32907,32906,32902,32898
15.155,171,32235,32851,32872,32883,32893,32895
15.174,172,32441,32674,32739,32789,32840,32864
15.174,173,32563,32403,32511,32607,32721,32788
15.174,174,32377,32417,32443,32499,32609,32699
15.174,175,32496,32496,32474,32477,32543,32627
15.189,176,32701,32489,32482,32478,32509,32573
15.198,177,32875,32651,32590,32552,32528,32556
15.211,178,32819,32724,32678,32633,32578,32572
15.211,179,32738,32745,32730,32697,32637,32607
15.220,180,32847,32803,32781,32754,32696,32653
15.229,181,32807,32767,32774,32769,32733,32692
15.239,182,32803,32782,32784,32780,32758,32724
15.240,183,32889,32816,32804,32797,32779,32750
15.288,184,32901,32822,32816,32810,32795,32771
15.290,185,32898,32855,32843,32831,32814,32791
15.314,186,32910,32884,32871,32857,32837,32812
15.314,187,32918,32890,32885,32876,32857,32831
15.318,188,32908,32894,32892,32888,32874,32849
15.326,189,32917,32906,32901,32898,32887,32866
15.327,190,32917,32900,32901,32901,32895,32880
15.327,191,32908,32893,32896,32898,32897,32888
15.330,192,32921,32900,32899,32897,32897,32892
15.331,193,32932,32909,32905,32902,32900,32896
15.339,194,32948,32926,32919,32913,32906,32902
15.339,195,32654,32875,32893,32898,32902,32902
15.351,196,32239,32756,32808,32837,32868,32884
15.361,197,32429,32610,32675,32731,32799,32839
15.361,198,32555,32424,32501,32583,32690,32762
15.383,199,32364,32416,32441,32489,32589,32676
15.385,200,32485,32488,32470,32470,32528,32607
15.402,201,32702,32514,32496,32486,32505,32561
15.405,202,32878,32663,32601,32563,32532,32551
15.405,203,32836,32744,32696,32649,32589,32575
15.415,204,32754,32778,32758,32722,32655,32618
15.431,205,32851,32821,32803,32777,32716,32668
15.431,206,32806,32779,32788,32787,32752,32708
15.436,207,32778,32778,32783,32786,32771,32738
15.443,208,32861,32803,32796,32794,32783,32759
15.457,209,32906,32829,32817,32810,32798,32776
15.457,210,32902,32867,32849,32836,32818,32795
15.466,211,32902,32894,32880,32865,32842,32817
15.478,212,32919,32905,32898,32888,32866,32838
15.505,213,32909,32905,32903,32899,32883,32858
15.507,214,32913,32913,32909,32907,32896,32875
15.507,215,32914,32907,32907,32909,32903,32888
15.531,216,32911,32905,32905,32907,32904,32896
15.532,217,32927,32915,32910,32909,32908,32902
15.549,218,32933,32919,32914,32913,32911,32906
15.549,219,32938,32926,32922,32918,32914,32910
15.549,220,32629,32909,32912,32914,32913,32911
15.553,221,32237,32875,32889,32897,32903,32908
15.571,222,32456,32702,32765,32809,32855,32882
15.571,223,32558,32408,32524,32623,32737,32804
15.573,224,32361,32412,32444,32504,32621,32711
15.583,225,32496,32499,32478,32480,32551,32637
15.598,226,32699,32492,32486,32481,32513,32579
15.598,227,32872,32656,32594,32555,32532,32561
15.600,228,32826,32732,32686,32640,32584,32579
15.631,229,32743,32755,32739,32706,32644,32615
15.631,230,32859,32821,32796,32767,32706,32661
15.632,231,32817,32785,32790,32785,32746,32703
15.650,232,32802,32790,32793,32792,32770,32735
15.650,233,32892,32822,32813,32806,32790,32761
15.661,234,32911,32832,32824,32820,32807,32782
15.661,235,32903,32865,32851,32841,32824,32801
15.672,236,32912,32897,32883,32868,32846,32822
15.682,237,32920,32901,32896,32888,32869,32842
15.682,238,32898,32890,32893,32892,32882,32858
15.692,239,32896,32889,32892,32892,32888,32871
15.702,240,32910,32892,32892,32892,32890,32880
15.711,241,32918,32899,32895,32896,32894,32886
15.722,242,32926,32903,32900,32898,32896,32890
15.722,243,32929,32904,32903,32900,32897,32894
15.747,244,32935,32910,32907,32904,32901,32898
15.748,245,32622,32860,32876,32885,32893,32895
15.758,246,32228,32778,32815,32838,32865,32879
15.758,247,32437,32635,32694,32743,32804,32840
15.772,248,32541,32410,32499,32584,32693,32764
15.785,249,32351,32405,32433,32483,32587,32677
15.785,250,32479,32482,32463,32464,32525,32606
15.785,251,32683,32488,32478,32471,32495,32556
15.799,252,32860,32630,32575,32539,32515,32541
15.808,253,32815,32714,32667,32622,32567,32559
15.818,254,32738,32761,32737,32698,32631,32600
15.818,255,32851,32817,32794,32763,32698,32650
15.831,0,32806,32784,32789,32782,32741,32693
15.838,1,32792,32792,32794,32792,32766,32729
15.866,2,32884,32814,32807,32802,32786,32757
15.866,3,32905,32826,32819,32814,32802,32777
15.869,4,32894,32861,32848,32836,32820,32796
15.886,5,32903,32893,32877,32864,32842,32817
15.886,6,32915,32900,32892,32885,32864,32838
15.886,7,32902,32894,32896,32894,32878,32855
15.911,8,32909,32904,32903,32900,32890,32871
15.912,9,32917,32906,32905,32903,32898,32883
15.928,10,32909,32903,32903,32904,32901,32891
15.928,11,32910,32901,32900,32902,32900,32895
15.928,12,32916,32898,32898,32898,32899,32897
15.939,13,32930,32907,32904,32901,32900,32899
15.948,14,32619,32902,32902,32901,32900,32900
15.948,15,32218,32885,32890,32892,32896,32900
15.959,16,32430,32694,32757,32805,32849,32873
15.981,17,32544,32382,32504,32611,32727,32795
15.982,18,32357,32400,32431,32490,32609,32702
15.982,19,32482,32487,32464,32467,32538,32625
15.993,20,32686,32470,32466,32464,32498,32567
15.999,21,32869,32631,32572,32535,32515,32546
16.012,22,32827,32716,32667,32620,32566,32562
16.012,23,32740,32750,32729,32692,32628,32599
16.020,24,32833,32801,32781,32753,32691,32646
16.033,25,32784,32755,32766,32765,32728,32685
16.042,26,32778,32765,32768,32769,32750,32717
16.051,27,32873,32794,32785,32779,32767,32740
16.061,28,32907,32808,32799,32794,32783,32758
16.062,29,32903,32850,32834,32820,32802,32778
16.076,30,32909,32889,32871,32852,32828,32802
16.076,31,32920,32895,32888,32878,32853,32824
16.104,32,32894,32885,32888,32886,32869,32845
16.105,33,32894,32886,32888,32886,32881,32862
16.105,34,32907,32885,32887,32887,32887,32872
16.112,35,32904,32889,32888,32889,32888,32878
16.113,36,32912,32894,32891,32890,32888,32882
16.127,37,32927,32899,32896,32893,32891,32887
16.141,38,32945,32915,32908,32902,32896,32893
16.141,39,32635,32888,32896,32896,32896,32895
16.150,40,32236,32838,32860,32871,32884,32889
16.162,41,32450,32673,32734,32783,32832,32858
16.170,42,32561,32403,32510,32605,32716,32784
16.170,43,32360,32404,32436,32492,32605,32695
16.181,44,32488,32486,32466,32470,32538,32620
16.193,45,32703,32472,32468,32468,32499,32565
16.218,46,32882,32605,32557,32525,32510,32543
16.221,47,32838,32707,32657,32609,32559,32556
16.239,48,32756,32773,32741,32696,32627,32595
16.239,49,32846,32812,32792,32761,32693,32647
16.239,50,32791,32765,32776,32774,32733,32690
16.239,51,32785,32783,32783,32782,32759,32723
16.245,52,32886,32808,32798,32794,32778,32749
16.264,53,32928,32831,32820,32813,32797,32770
16.264,54,32913,32871,32856,32840,32820,32792
16.264,55,32899,32889,32879,32865,32843,32816
16.277,56,32918,32897,32892,32884,32864,32837
16.291,57,32913,32897,32897,32894,32879,32856
16.291,58,32907,32901,32901,32899,32890,32872
16.301,59,32922,32907,32905,32903,32898,32883
16.311,60,32926,32913,32910,32907,32904,32891
16.333,61,32921,32914,32912,32910,32906,32898
16.335,62,32930,32914,32912,32911,32908,32903
16.335,63,32942,32912,32911,32911,32909,32907
16.343,64,32622,32897,32902,32904,32906,32907
16.357,65,32235,32891,32895,32897,32901,32904
16.368,66,32451,32704,32765,32811,32855,32877
16.368,67,32548,32385,32509,32615,32732,32801
16.372,68,32356,32400,32433,32494,32614,32708
16.391,69,32480,32483,32461,32467,32540,32628
16.392,70,32683,32453,32453,32456,32495,32567
16.392,71,32868,32603,32550,32518,32504,32541
16.406,72,32826,32702,32652,32604,32552,32552
16.415,73,32746,32756,32729,32685,32618,32590
16.427,74,32860,32815,32791,32756,32688,32641
16.427,75,32808,32773,32782,32776,32733,32686
16.453,76,32780,32781,32783,32782,32759,32721
16.455,77,32873,32802,32795,32793,32777,32747
16.455,78,32909,32811,32806,32803,32790,32767
16.456,79,32901,32851,32837,32824,32808,32785
16.468,80,32908,32889,32872,32854,32833,32807
16.487,81,32925,32900,32892,32880,32857,32830
16.491,82,32907,32899,32898,32893,32875,32849
16.491,83,32901,32900,32900,32899,32887,32866
16.503,84,32912,32894,32897,32898,32893,32879
16.510,85,32917,32897,32898,32897,32896,32887
16.528,86,32911,32897,32897,32896,32897,32890
16.528,87,32916,32897,32896,32895,32896,32893
16.531,88,32938,32905,32900,32898,32897,32895
16.559,89,32617,32896,32897,32897,32896,32896
16.562,90,32222,32892,32894,32894,32894,32897
16.562,91,32445,32702,32766,32809,32850,32871
16.586,92,32549,32377,32505,32611,32729,32795
16.587,93,32358,32397,32428,32491,32611,32703
16.596,94,32479,32480,32459,32464,32537,32624
16.596,95,32674,32413,32428,32437,32485,32558
16.598,96,32862,32520,32488,32471,32474,32521
16.612,97,32842,32666,32607,32559,32516,32525
16.612,98,32762,32788,32732,32673,32595,32566
16.619,99,32848,32814,32790,32752,32673,32620
16.631,100,32798,32757,32772,32769,32720,32670
16.641,101,32783,32791,32786,32784,32754,32712
16.653,102,32866,32797,32793,32790,32775,32741
16.653,103,32896,32800,32796,32795,32786,32761
16.662,104,32889,32849,32830,32819,32804,32781
16.691,105,32902,32884,32867,32851,32828,32803
16.693,106,32916,32894,32886,32875,32852,32824
16.693,107,32892,32891,32889,32886,32870,32844
16.717,108,32894,32893,32891,32891,32881,32860
16.717,109,32903,32890,32890,32892,32887,32872
16.719,110,32905,32897,32894,32893,32893,32881
16.720,111,32909,32901,32896,32894,32896,32886
16.738,112,32907,32891,32891,32891,32894,32888
16.738,113,32932,32900,32897,32895,32894,32891
16.749,114,32636,32910,32905,32902,32898,32896
16.749,115,32233,32906,32907,32904,32900,32899
16.760,116,32446,32709,32776,32819,32857,32877
16.771,117,32553,32384,32512,32619,32737,32801
16.771,118,32350,32396,32430,32494,32616,32707
16.782,119,32486,32486,32464,32469,32542,32629
16.801,120,32703,32433,32443,32449,32493,32566
16.802,121,32868,32523,32494,32479,32484,32529
16.816,122,32818,32649,32599,32556,32518,32530
16.816,123,32754,32782,32727,32668,32593,32568
16.824,124,32863,32827,32797,32755,32674,32623
16.841,125,32814,32778,32787,32779,32727,32674
16.849,126,32802,32814,32807,32799,32765,32719
16.849,127,32888,32819,32814,32809,32790,32752
16.854,128,32910,32814,32813,32813,32803,32774
16.873,129,32900,32861,32845,32834,32819,32794
16.873,130,32902,32891,32877,32861,32841,32816
16.877,131,32907,32891,32888,32879,32861,32835
16.886,132,32910,32903,32898,32893,32877,32853
16.898,133,32926,32925,32915,32910,32894,32872
16.907,134,32911,32911,32913,32913,32904,32887
16.907,135,32907,32904,32907,32909,32907,32897
16.929,136,32921,32909,32907,32907,32909,32902
16.931,137,32926,32910,32909,32908,32908,32903
16.938,138,32949,32922,32917,32912,32910,32907
16.949,139,32640,32927,32923,32918,32913,32911
16.953,140,32235,32922,32922,32920,32916,32915
16.973,141,32448,32719,32786,32832,32872,32892
16.973,142,32557,32389,32519,32627,32747,32813
16.973,143,32360,32406,32439,32503,32627,32718
16.979,144,32485,32492,32471,32476,32551,32640
17.005,145,32698,32427,32441,32449,32498,32572
17.005,146,32879,32520,32491,32477,32485,32533
17.005,147,32841,32661,32606,32560,32520,32534
17.017,148,32763,32798,32739,32677,32599,32572
17.044,149,32857,32831,32803,32762,32680,32628
17.047,150,32809,32778,32789,32784,32731,32680
17.061,151,32800,32814,32808,32802,32768,32723
17.081,152,32886,32814,32812,32810,32792,32755
17.081,153,32910,32816,32814,32815,32804,32776
17.081,154,32903,32870,32850,32838,32823,32797
17.081,155,32907,32898,32882,32867,32846,32821
17.082,156,32911,32896,32892,32885,32865,32840
17.083,157,32903,32898,32897,32894,32880,32857
17.101,158,32912,32909,32906,32902,32893,32872
17.101,159,32907,32905,32905,32904,32900,32884
17.109,160,32905,32904,32905,32905,32902,32892
17.122,161,32913,32905,32905,32904,32903,32897
17.133,162,32921,32903,32902,32902,32903,32900
17.133,163,32939,32913,32910,32905,32904,32902
17.143,164,32629,32918,32915,32910,32906,32904
17.164,165,32237,32919,32916,32914,32909,32908
17.166,166,32454,32722,32788,32831,32867,32888
17.167,167,32551,32386,32518,32627,32745,32811
17.177,168,32347,32392,32428,32497,32622,32715
17.201,169,32475,32478,32457,32466,32543,32635
17.201,170,32670,32390,32414,32428,32483,32563
17.203,171,32836,32442,32435,32431,32454,32513
17.220,172,32827,32614,32556,32511,32482,32504
17.220,173,32767,32800,32721,32650,32566,32541
17.234,174,32844,32823,32792,32745,32654,32601
17.234,175,32800,32769,32779,32771,32712,32657
17.235,176,32791,32815,32805,32796,32756,32705
17.249,177,32869,32799,32802,32801,32781,32741
17.249,178,32893,32788,32792,32797,32790,32762
17.260,179,32880,32844,32826,32817,32805,32780
17.283,180,32889,32884,32865,32848,32828,32802
17.285,181,32913,32898,32888,32874,32852,32824
17.304,182,32918,32912,32905,32896,32874,32846
17.304,183,32927,32926,32920,32913,32895,32869
17.304,184,32914,32917,32918,32915,32907,32887
17.318,185,32911,32919,32917,32917,32914,32899
17.319,186,32919,32919,32917,32917,32915,32905
17.319,187,32916,32906,32910,32911,32912,32907
17.334,188,32932,32909,32909,32908,32912,32911
17.346,189,32622,32915,32911,32909,32911,32911
17.355,190,32229,32923,32918,32915,32912,32911
17.358,191,32446,32725,32790,32833,32870,32889
17.367,192,32554,32387,32519,32628,32747,32813
17.397,193,32361,32406,32437,32503,32625,32718
17.399,194,32484,32492,32470,32476,32550,32639
17.400,195,32684,32402,32425,32439,32492,32570
17.418,196,32855,32457,32447,32445,32465,32522
17.418,197,32828,32618,32564,32521,32493,32513
17.418,198,32764,32801,32725,32655,32574,32549
17.418,199,32854,32830,32798,32751,32661,32609
17.434,200,32810,32780,32789,32779,32719,32665
17.439,201,32808,32837,32822,32810,32767,32715
17.453,202,32883,32823,32822,32820,32795,32752
17.453,203,32891,32802,32810,32815,32806,32776
17.462,204,32886,32856,32840,32832,32820,32796
17.477,205,32894,32889,32871,32858,32839,32815
17.479,206,32897,32891,32885,32877,32858,32834
17.480,207,32900,32898,32894,32889,32875,32852
17.493,208,32913,32910,32905,32900,32889,32868
17.521,209,32910,32908,32907,32905,32898,32880
17.522,210,32914,32914,32911,32909,32905,32892
17.546,211,32910,32914,32911,32911,32908,32900
17.547,212,32910,32905,32905,32909,32907,32903
17.555,213,32937,32911,32908,32908,32907,32906
17.555,214,32634,32925,32919,32913,32911,32908
17.555,215,32234,32935,32929,32923,32917,32913
17.560,216,32440,32727,32794,32838,32875,32892
17.570,217,32560,32390,32522,32632,32751,32817
17.583,218,32376,32415,32447,32511,32631,32723
17.583,219,32489,32499,32479,32483,32558,32644
17.596,220,32687,32407,32430,32445,32499,32575
17.598,221,32856,32460,32452,32448,32470,32528
17.598,222,32824,32620,32567,32522,32496,32518
17.611,223,32763,32802,32726,32657,32577,32553
17.639,224,32849,32825,32795,32750,32662,32611
17.639,225,32797,32769,32782,32774,32718,32665
17.649,226,32795,32824,32812,32803,32762,32712
17.649,227,32878,32813,32814,32812,32787,32747
17.649,228,32906,32808,32810,32811,32800,32773
17.685,229,32906,32867,32847,32835,32820,32794
17.685,230,32907,32898,32880,32865,32843,32816
17.685,231,32916,32906,32897,32887,32866,32838
17.689,232,32912,32912,32908,32903,32885,32859
17.711,233,32916,32916,32915,32912,32899,32876
17.711,234,32916,32912,32913,32912,32907,32889
17.711,235,32910,32910,32911,32912,32909,32898
17.711,236,32909,32909,32910,32910,32911,32903
17.740,237,32919,32907,32907,32908,32909,32905
17.769,238,32938,32914,32911,32910,32908,32908
17.769,239,32635,32924,32919,32914,32912,32910
17.769,240,32250,32935,32929,32923,32917,32913
17.769,241,32452,32734,32797,32840,32876,32892
17.769,242,32553,32397,32528,32636,32755,32818
17.770,243,32369,32416,32449,32513,32634,32725
17.797,244,32499,32503,32481,32485,32561,32648
17.797,245,32701,32417,32438,32449,32503,32580
17.797,246,32854,32465,32457,32454,32474,32532
17.803,247,32817,32616,32563,32524,32499,32521
17.817,248,32766,32800,32722,32654,32577,32555
17.862,249,32853,32827,32796,32748,32661,32611
17.862,250,32797,32767,32782,32773,32717,32664
17.862,251,32792,32818,32808,32799,32760,32711
17.862,252,32868,32808,32808,32806,32785,32746
17.888,253,32891,32798,32802,32806,32797,32768
17.888,254,32902,32858,32839,32829,32814,32790
17.888,255,32920,32897,32878,32861,32838,32812
17.888,0,32920,32906,32897,32885,32862,32834
17.888,1,32914,32913,32908,32902,32882,32856
17.920,2,32926,32923,32919,32915,32899,32876
17.920,3,32912,32910,32912,32914,32909,32889
17.920,4,32902,32900,32904,32907,32910,32897
17.920,5,32909,32903,32904,32904,32908,32901
17.920,6,32918,32904,32902,32903,32905,32903
17.932,7,32942,32914,32908,32906,32906,32905
17.953,8,32638,32923,32917,32913,32909,32908
17.953,9,32245,32929,32925,32920,32913,32912
17.966,10,32456,32732,32798,32838,32874,32891
17.966,11,32560,32395,32530,32636,32752,32816
17.991,12,32365,32408,32444,32510,32631,32724
17.992,13,32487,32494,32472,32478,32558,32645
17.992,14,32660,32402,32426,32439,32496,32574
18.016,15,32794,32451,32445,32443,32465,32525
18.016,16,32808,32613,32557,32516,32490,32514
18.017,17,32778,32790,32712,32645,32567,32547
18.040,18,32821,32804,32777,32733,32648,32601
18.046,19,32786,32754,32766,32757,32702,32653
18.046,20,32816,32823,32805,32793,32749,32702
18.048,21,32871,32814,32811,32807,32779,32739
18.075,22,32888,32797,32803,32805,32793,32763
18.075,23,32908,32857,32839,32829,32812,32785
18.075,24,32925,32899,32879,32862,32838,32810
18.083,25,32931,32910,32900,32887,32863,32834
18.084,26,32926,32921,32915,32907,32885,32856
18.109,27,32930,32929,32926,32921,32903,32877
18.109,28,32915,32914,32919,32919,32912,32892
18.120,29,32915,32912,32914,32916,32915,32902
18.127,30,32925,32915,32914,32915,32915,32907
18.127,31,32916,32906,32907,32909,32912,32908
18.135,32,32926,32911,32908,32910,32910,32909
18.145,33,32637,32924,32918,32915,32911,32911
18.158,34,32248,32930,32925,32920,32914,32915
18.158,35,32446,32723,32795,32836,32873,32893
18.171,36,32560,32388,32530,32634,32753,32816
18.185,37,32371,32404,32443,32506,32632,32723
18.185,38,32491,32493,32468,32475,32556,32644
18.185,39,32678,32414,32432,32441,32497,32575
18.199,40,32806,32460,32452,32447,32468,32526
18.222,41,32803,32610,32553,32517,32492,32515
18.224,42,32788,32793,32711,32645,32568,32548
18.224,43,32844,32821,32787,32739,32651,32605
18.245,44,32800,32773,32783,32771,32711,32658
18.245,45,32827,32835,32819,32806,32761,32709
18.258,46,32882,32818,32819,32815,32790,32747
18.258,47,32885,32788,32799,32806,32799,32771
18.258,48,32895,32843,32826,32821,32811,32789
18.273,49,32917,32893,32869,32852,32833,32809
18.283,50,32923,32901,32892,32878,32856,32830
18.283,51,32914,32909,32905,32897,32876,32850
18.296,52,32924,32922,32917,32911,32895,32870
18.305,53,32912,32908,32911,32912,32905,32885
18.316,54,32912,32907,32909,32911,32908,32896
18.316,55,32938,32923,32917,32914,32912,32903
18.342,56,32944,32927,32923,32919,32916,32909
18.344,57,32935,32926,32923,32920,32919,32913
18.353,58,32626,32925,32921,32921,32918,32915
18.355,59,32250,32930,32926,32924,32919,32919
18.357,60,32459,32728,32798,32839,32878,32898
18.370,61,32557,32385,32531,32636,32756,32820
18.389,62,32358,32395,32439,32505,32632,32724
18.389,63,32485,32486,32462,32472,32554,32642
18.394,64,32636,32406,32426,32438,32493,32572
18.401,65,32717,32449,32443,32439,32463,32522
18.413,66,32778,32599,32542,32506,32485,32510
18.413,67,32828,32786,32701,32637,32560,32542
18.426,68,32857,32830,32788,32738,32647,32598
18.437,69,32806,32786,32792,32776,32711,32655
18.468,70,32825,32825,32816,32806,32760,32706
18.468,71,32864,32804,32808,32809,32788,32744
18.470,72,32888,32787,32795,32801,32796,32766
18.492,73,32904,32844,32825,32817,32808,32784
18.492,74,32924,32894,32868,32851,32831,32806
18.495,75,32929,32902,32891,32878,32854,32829
18.495,76,32920,32910,32906,32897,32875,32849
18.496,77,32939,32926,32921,32913,32896,32868
18.496,78,32925,32914,32916,32915,32907,32884
18.515,79,32916,32914,32915,32914,32911,32897
18.517,80,32935,32919,32919,32916,32915,32905
18.534,81,32935,32913,32915,32914,32915,32909
18.545,82,32941,32918,32916,32914,32915,32911
18.546,83,32646,32927,32923,32919,32918,32914
18.551,84,32259,32935,32929,32925,32920,32918
18.576,85,32463,32732,32801,32843,32878,32896
18.577,86,32576,32391,32540,32643,32759,32822
18.598,87,32379,32403,32448,32513,32638,32730
18.598,88,32488,32490,32465,32478,32559,32647
18.598,89,32633,32407,32427,32440,32497,32577
18.606,90,32715,32448,32444,32439,32466,32526
18.606,91,32767,32587,32532,32501,32483,32509
18.625,92,32810,32764,32681,32622,32551,32537
18.626,93,32834,32808,32767,32719,32633,32590
18.635,94,32777,32765,32772,32756,32694,32642
18.635,95,32800,32802,32794,32784,32740,32691
18.656,96,32842,32786,32788,32788,32767,32727
18.656,97,32878,32783,32786,32788,32780,32751
18.666,98,32917,32849,32826,32814,32798,32773
18.666,99,32945,32906,32876,32856,32828,32799
18.695,100,32949,32920,32905,32889,32858,32827
18.695,101,32935,32926,32920,32911,32884,32853
18.706,102,32955,32940,32934,32927,32907,32877
18.706,103,32942,32930,32932,32931,32921,32895
18.714,104,32923,32924,32926,32928,32925,32910
18.727,105,32929,32921,32920,32925,32925,32917
18.739,106,32931,32913,32915,32918,32922,32918
18.739,107,32946,32921,32919,32917,32920,32918
18.739,108,32665,32935,32928,32922,32921,32920
18.752,109,32296,32945,32937,32931,32926,32924
18.762,110,32478,32745,32815,32853,32887,32904
18.762,111,32563,32402,32558,32657,32769,32832
18.774,112,32387,32408,32459,32525,32649,32739
18.787,113,32489,32488,32464,32482,32567,32656
18.795,114,32540,32395,32419,32436,32498,32582
18.818,115,32555,32434,32431,32431,32463,32527
18.820,116,32708,32566,32512,32485,32474,32505
18.826,117,32830,32718,32642,32590,32531,32524
18.828,118,32758,32746,32711,32672,32599,32566
18.828,119,32691,32698,32708,32698,32648,32607
18.842,120,32761,32730,32724,32719,32685,32647
18.851,121,32775,32701,32707,32714,32700,32672
18.864,122,32813,32671,32684,32696,32699,32683
18.864,123,32858,32751,32727,32717,32709,32696
18.865,124,32915,32863,32813,32781,32746,32721
18.879,125,32937,32888,32863,32836,32791,32755
18.892,126,32902,32895,32887,32870,32831,32791
18.892,127,32939,32927,32916,32902,32867,32826
18.906,128,32944,32922,32921,32916,32893,32857
18.907,129,32934,32933,32929,32925,32911,32882
18.909,130,32964,32952,32943,32936,32925,32902
18.937,131,32974,32951,32949,32945,32935,32918
18.939,132,32982,32959,32955,32952,32944,32930
18.940,133,32759,32970,32964,32959,32952,32940
18.957,134,32486,32997,32984,32975,32963,32953
18.957,135,32595,32818,32879,32912,32936,32942
18.967,136,32562,32471,32625,32722,32826,32878
18.976,137,32448,32470,32523,32589,32709,32792
18.980,138,32581,32567,32537,32552,32632,32715
18.989,139,32658,32486,32503,32515,32571,32647
18.997,140,32759,32518,32515,32512,32539,32597
19.011,141,32835,32665,32606,32574,32555,32581
19.019,142,32891,32849,32760,32698,32626,32610
19.019,143,32866,32860,32825,32783,32702,32659
19.051,144,32749,32774,32797,32795,32747,32703
19.052,145,32751,32781,32788,32793,32771,32735
19.053,146,32766,32732,32749,32765,32770,32749
19.053,147,32801,32707,32721,32737,32755,32750
19.064,148,32861,32780,32757,32751,32755,32751
19.084,149,32916,32865,32824,32798,32777,32763
19.110,150,32905,32884,32863,32840,32809,32784
19.110,151,32881,32894,32886,32871,32839,32810
19.134,152,32923,32919,32909,32899,32868,32838
19.134,153,32906,32907,32909,32907,32889,32861
19.134,154,32905,32914,32914,32911,32903,32880
19.134,155,32932,32925,32921,32918,32912,32894
19.134,156,32921,32920,32918,32919,32916,32904
19.139,157,32951,32938,32931,32927,32921,32914
19.160,158,32823,32967,32955,32945,32933,32925
19.160,159,32611,32990,32977,32965,32950,32938
19.169,160,32584,32796,32865,32897,32921,32927
19.177,161,32468,32463,32617,32711,32813,32866
19.190,162,32459,32478,32525,32589,32702,32783
19.194,163,32585,32572,32541,32554,32630,32708
19.218,164,32670,32499,32514,32523,32574,32645
19.218,165,32882,32541,32534,32528,32548,32601
19.246,166,32895,32713,32646,32606,32575,32593
19.246,167,32910,32941,32837,32759,32666,32638
19.246,168,32974,32963,32922,32866,32765,32705
19.246,169,32864,32889,32906,32896,32829,32766
19.246,170,32879,32933,32926,32920,32876,32819
19.252,171,32887,32888,32898,32908,32894,32853
19.253,172,32846,32844,32863,32879,32887,32867
19.273,173,32899,32877,32870,32875,32881,32871
19.306,174,32916,32883,32874,32874,32879,32872
19.306,175,32864,32878,32875,32873,32877,32871
19.306,176,32849,32882,32879,32876,32876,32871
19.306,177,32845,32862,32868,32871,32872,32870
19.306,178,32810,32835,32847,32856,32863,32865
19.306,179,32812,32832,32837,32843,32854,32858
19.329,180,32822,32829,32831,32835,32845,32851
19.332,181,32816,32824,32826,32829,32837,32844
19.335,182,32820,32820,32819,32823,32828,32837
19.349,183,32606,32831,32827,32825,32825,32833
19.375,184,32354,32874,32858,32846,32836,32837
19.375,185,32448,32693,32755,32785,32810,32822
19.375,186,32418,32351,32503,32598,32702,32758
19.375,187,32341,32375,32420,32479,32591,32675
19.384,188,32478,32484,32449,32456,32526,32604
19.410,189,32503,32407,32422,32429,32476,32545
19.410,190,32574,32462,32450,32441,32455,32506
19.410,191,32809,32659,32581,32535,32495,32508
19.421,192,33013,32886,32776,32695,32596,32560
19.421,193,32953,32936,32883,32820,32706,32637
19.438,194,32876,32895,32900,32875,32789,32713
19.439,195,32935,32920,32916,32906,32848,32779
19.448,196,32895,32884,32893,32901,32877,32824
19.463,197,32912,32871,32881,32889,32885,32851
19.476,198,32954,32901,32892,32890,32889,32867
19.476,199,32934,32902,32897,32892,32891,32876
19.478,200,32909,32889,32893,32891,32892,32881
19.497,201,32889,32887,32889,32889,32891,32883
19.497,202,32890,32882,32883,32885,32888,32881
19.497,203,32846,32844,32857,32868,32877,32876
19.524,204,32806,32813,32828,32842,32861,32867
19.527,205,32800,32795,32806,32817,32841,32852
19.536,206,32781,32773,32783,32794,32817,32833
19.542,207,32790,32767,32770,32778,32797,32815
19.553,208,32501,32782,32777,32776,32786,32803
19.563,209,32117,32799,32793,32786,32785,32797
19.563,210,32361,32599,32670,32709,32744,32769
19.563,211,32520,32268,32416,32515,32629,32694
19.577,212,32295,32327,32356,32409,32521,32609
19.585,213,32375,32472,32419,32411,32468,32545
19.585,214,32451,32371,32387,32392,32430,32492
19.596,215,32412,32381,32388,32391,32408,32454
19.608,216,32708,32569,32502,32466,32437,32452
19.616,217,33006,32763,32668,32600,32519,32493
19.647,218,32863,32813,32766,32712,32614,32557
19.648,219,32839,32832,32818,32785,32699,32630
19.650,220,32989,32891,32870,32844,32773,32702
19.657,221,32932,32885,32882,32871,32825,32760
19.657,222,32976,32907,32901,32892,32860,32808
19.660,223,33048,32951,32932,32919,32891,32848
19.668,224,33031,32967,32953,32942,32918,32880
19.682,225,33028,32972,32966,32957,32939,32906
19.690,226,32995,32968,32967,32963,32952,32924
19.690,227,32974,32957,32959,32960,32956,32935
19.703,228,32955,32932,32940,32948,32952,32940
19.712,229,32934,32912,32920,32930,32940,32938
19.726,230,32914,32885,32897,32907,32923,32929
19.726,231,32887,32858,32871,32880,32902,32914
19.735,232,32867,32838,32848,32858,32881,32895
19.759,233,32696,32830,32834,32842,32861,32878
19.762,234,32511,32846,32839,32840,32849,32867
19.783,235,32462,32638,32713,32755,32799,32832
19.785,236,32291,32276,32440,32544,32669,32745
19.786,237,32280,32331,32365,32426,32549,32647
19.791,238,32402,32513,32445,32436,32494,32578
19.791,239,32327,32373,32398,32406,32448,32518
19.806,240,32377,32313,32349,32368,32405,32465
19.807,241,32661,32493,32439,32416,32411,32444
19.823,242,32886,32647,32572,32520,32465,32461
19.823,243,32806,32702,32660,32614,32538,32503
19.834,244,32761,32771,32741,32700,32620,32565
19.838,245,32853,32790,32777,32754,32688,32627
19.853,246,32848,32784,32783,32776,32734,32680
19.853,247,32942,32866,32840,32820,32780,32730
19.879,248,33033,32927,32895,32871,32828,32778
19.882,249,33057,32971,32944,32921,32875,32825
19.889,250,33068,33007,32987,32965,32920,32870
19.889,251,33033,33007,33002,32989,32955,32909
19.896,252,33037,33012,33010,33004,32981,32940
19.913,253,33029,33004,33006,33006,32995,32963
19.917,254,33009,32994,32997,33000,32998,32976
19.917,255,33003,32982,32986,32989,32994,32983
19.929,0,32985,32963,32970,32974,32984,32983
19.936,1,32964,32943,32951,32957,32970,32974
19.950,2,32937,32930,32935,32941,32956,32963
19.950,3,32934,32936,32932,32935,32944,32953
19.960,4,32632,32733,32807,32851,32893,32922
19.972,5,32201,32371,32534,32641,32765,32839
19.972,6,32357,32363,32419,32493,32631,32732
19.997,7,32465,32461,32431,32448,32542,32640
19.999,8,32269,32355,32380,32400,32469,32558
20.009,9,32351,32342,32358,32371,32417,32492
20.017,10,32517,32429,32399,32388,32402,32453
20.017,11,32698,32540,32487,32454,32427,32446
20.024,12,32675,32613,32572,32534,32478,32468
20.032,13,32582,32645,32628,32597,32538,32506
20.046,14,32691,32675,32664,32642,32592,32551
20.046,15,32705,32680,32676,32668,32631,32592
20.058,16,32763,32728,32712,32700,32668,32630
20.067,17,32911,32817,32780,32755,32715,32672
20.067,18,33007,32914,32866,32830,32773,32723
20.078,19,33011,32969,32935,32900,32837,32779
20.089,20,33003,33004,32983,32956,32898,32836
20.111,21,33048,33038,33021,33001,32950,32890
20.121,22,33024,33028,33026,33018,32987,32934
20.121,23,33018,33033,33030,33027,33010,32967
20.122,24,33041,33042,33037,33033,33022,32991
20.131,25,33026,33030,33031,33031,33027,33006
20.143,26,33015,33018,33022,33023,33026,33014
20.143,27,33004,33010,33012,33014,33020,33014
20.148,28,33006,33015,33011,33012,33016,33012
20.168,29,32697,32816,32888,32929,32969,32988
20.168,30,32286,32478,32631,32731,32846,32912
20.168,31,32476,32478,32529,32597,32723,32816
20.183,32,32570,32551,32530,32549,32637,32730
20.197,33,32363,32456,32480,32498,32565,32651
20.205,34,32468,32483,32483,32484,32522,32591
20.205,35,32680,32598,32552,32527,32523,32564
20.229,36,32885,32738,32669,32622,32570,32572
20.231,37,32779,32771,32736,32697,32631,32606
20.248,38,32595,32714,32726,32716,32674,32641
20.248,39,32634,32675,32694,32705,32690,32664
20.251,40,32582,32618,32642,32667,32679,32669
20.267,41,32628,32632,32635,32648,32665,32666
20.271,42,32779,32703,32677,32669,32668,32668
20.271,43,32876,32784,32743,32719,32695,32682
20.281,44,32868,32841,32808,32778,32736,32710
20.289,45,32863,32884,32861,32834,32784,32747
20.303,46,32920,32913,32898,32877,32831,32787
20.303,47,32898,32914,32910,32901,32867,32824
20.312,48,32911,32939,32931,32923,32897,32859
20.323,49,32961,32963,32951,32943,32922,32889
20.331,50,32979,32983,32971,32963,32944,32915
20.331,51,33000,33002,32992,32983,32964,32940
20.354,52,33002,33011,33004,32996,32980,32959
20.356,53,33007,33032,33022,33011,32996,32976
20.366,54,32719,32849,32912,32945,32970,32971
20.366,55,32324,32518,32666,32762,32862,32911
20.391,56,32521,32527,32576,32639,32751,32830
20.399,57,32633,32614,32587,32602,32679,32757
20.408,58,32435,32529,32547,32562,32619,32691
20.408,59,32547,32562,32559,32558,32584,32643
20.408,60,32788,32703,32645,32615,32598,32627
20.421,61,33021,32875,32788,32731,32662,32650
20.421,62,32906,32903,32863,32818,32738,32697
20.430,63,32740,32847,32861,32846,32791,32744
20.440,64,32830,32846,32853,32853,32823,32781
20.464,65,32727,32772,32797,32820,32821,32797
20.466,66,32672,32718,32745,32772,32797,32794
20.467,67,32800,32743,32741,32750,32775,32783
20.479,68,32860,32779,32759,32757,32766,32774
20.483,69,32811,32802,32786,32776,32770,32771
20.484,70,32832,32850,32832,32812,32791,32780
20.496,71,32877,32874,32862,32845,32818,32799
20.506,72,32833,32856,32860,32856,32838,32817
20.515,73,32852,32871,32869,32865,32854,32833
20.526,74,32870,32874,32871,32870,32864,32847
20.526,75,32872,32881,32877,32876,32870,32858
20.539,76,32919,32911,32899,32892,32881,32870
20.540,77,32921,32926,32917,32908,32896,32883
20.561,78,32944,32966,32951,32935,32917,32900
20.561,79,32695,32813,32867,32889,32902,32899
20.562,80,32280,32478,32625,32714,32804,32847
20.587,81,32469,32484,32534,32595,32700,32772
20.599,82,32624,32591,32559,32568,32636,32708
20.601,83,32441,32517,32531,32540,32587,32652
20.602,84,32552,32561,32553,32545,32563,32613
20.618,85,32831,32725,32657,32619,32590,32608
20.621,86,33094,32920,32823,32756,32672,32646
20.621,87,32981,32963,32916,32862,32765,32708
20.631,88,32832,32926,32931,32908,32836,32772
20.641,89,32941,32939,32938,32931,32885,32826
20.641,90,32843,32879,32896,32911,32900,32859
20.658,91,32802,32840,32860,32879,32890,32870
20.662,92,32891,32839,32843,32857,32873,32868
20.677,93,32869,32813,32819,32831,32853,32857
20.681,94,32821,32814,32814,32819,32836,32843
20.681,95,32835,32847,32837,32830,32832,32836
20.706,96,32828,32836,32836,32833,32833,32832
20.707,97,32788,32807,32818,32824,32828,32827
20.724,98,32806,32816,32818,32820,32825,32826
20.724,99,32815,32814,32814,32815,32822,32823
20.726,100,32825,32821,32818,32818,32820,32821
20.739,101,32852,32839,32832,32827,32824,32824
20.747,102,32840,32847,32842,32836,32831,32829
20.747,103,32846,32875,32865,32855,32844,32838
20.759,104,32567,32690,32757,32789,32814,32824
20.772,105,32177,32360,32509,32604,32706,32761
20.782,106,32390,32401,32439,32494,32602,32681
20.782,107,32553,32541,32494,32491,32549,32620
20.793,108,32414,32489,32490,32487,32516,32575
20.819,109,32526,32520,32514,32504,32506,32547
20.821,110,32791,32668,32609,32573,32538,32549
20.838,111,33066,32843,32758,32697,32616,32589
20.838,112,32966,32907,32857,32804,32709,32653
20.849,113,32841,32929,32912,32876,32792,32724
20.849,114,32951,32943,32934,32917,32855,32788
20.849,115,32873,32891,32904,32912,32886,32833
20.854,116,32878,32901,32903,32908,32899,32864
20.871,117,32961,32911,32907,32906,32905,32882
20.880,118,32940,32897,32897,32901,32904,32887
20.880,119,32926,32912,32907,32904,32903,32891
20.892,120,32927,32931,32923,32915,32908,32898
20.903,121,32911,32921,32921,32920,32914,32902
20.912,122,32862,32881,32895,32905,32909,32901
20.912,123,32844,32857,32871,32883,32896,32897
20.934,124,32837,32838,32848,32860,32878,32886
20.936,125,32808,32813,32824,32835,32857,32870
20.959,126,32803,32799,32805,32815,32837,32852
20.959,127,32797,32798,32797,32803,32818,32835
20.962,128,32831,32831,32819,32812,32814,32828
20.962,129,32568,32666,32726,32752,32783,32807
20.979,130,32137,32327,32477,32569,32674,32736
20.980,131,32330,32337,32386,32447,32561,32647
20.981,132,32490,32452,32417,32424,32496,32576
20.997,133,32312,32384,32396,32402,32448,32518
21.007,134,32453,32443,32432,32419,32432,32481
21.007,135,32733,32574,32521,32487,32458,32477
21.018,136,32942,32669,32616,32574,32513,32500
21.046,137,32878,32775,32724,32672,32592,32551
21.048,138,32823,32895,32843,32785,32691,32624
21.048,139,32948,32923,32901,32863,32778,32701
21.072,140,32895,32895,32899,32891,32835,32767
21.073,141,32900,32930,32920,32912,32877,32819
21.073,142,32985,32937,32928,32926,32903,32857
21.090,143,32979,32937,32932,32933,32917,32884
21.090,144,32962,32955,32947,32941,32929,32903
21.094,145,32955,32962,32956,32949,32940,32918
21.110,146,32945,32959,32957,32954,32948,32928
21.110,147,32912,32931,32938,32944,32946,32932
21.120,148,32887,32905,32916,32925,32935,32931
21.122,149,32859,32872,32886,32899,32917,32923
21.122,150,32836,32843,32857,32870,32894,32907
21.136,151,32842,32838,32842,32850,32873,32888
21.144,152,32833,32830,32831,32837,32854,32871
21.155,153,32826,32828,32827,32830,32840,32857
21.182,154,32510,32625,32700,32742,32790,32822
21.182,155,32101,32290,32443,32544,32665,32739
21.185,156,32309,32302,32351,32417,32542,32641
21.202,157,32441,32402,32374,32388,32467,32559
21.202,158,32275,32346,32357,32366,32414,32493
21.202,159,32411,32407,32393,32380,32395,32452
21.203,160,32638,32456,32432,32414,32403,32435
21.220,161,32832,32454,32450,32440,32420,32432
21.220,162,32820,32644,32581,32534,32478,32461
21.228,163,32772,32881,32780,32697,32590,32531
21.242,164,32867,32868,32842,32795,32693,32613
21.250,165,32846,32843,32847,32832,32764,32687
21.262,166,32877,32930,32901,32881,32826,32754
21.262,167,32967,32924,32915,32906,32867,32808
21.271,168,32992,32940,32929,32924,32897,32848
21.294,169,32988,32989,32967,32953,32925,32883
21.311,170,32994,33009,32995,32979,32954,32916
21.311,171,33006,33022,33013,33000,32979,32943
21.313,172,32972,33003,33004,33003,32990,32961
21.313,173,32959,32991,32992,32997,32995,32975
21.326,174,32957,32978,32981,32986,32991,32982
21.326,175,32932,32951,32960,32968,32979,32978
21.340,176,32919,32936,32941,32949,32965,32969
21.351,177,32910,32926,32927,32933,32948,32956
21.354,178,32914,32921,32920,32924,32933,32945
21.354,179,32599,32838,32867,32885,32908,32928
21.373,180,32188,32705,32764,32802,32854,32890
21.373,181,32386,32571,32634,32691,32771,32829
21.386,182,32496,32389,32463,32543,32656,32740
21.386,183,32307,32374,32399,32447,32550,32647
21.412,184,32421,32438,32423,32425,32486,32572
21.414,185,32621,32402,32406,32411,32446,32514
21.434,186,32811,32466,32445,32434,32437,32480
21.434,187,32788,32623,32564,32518,32477,32485
21.434,188,32706,32776,32708,32643,32561,32528
21.448,189,32792,32787,32763,32725,32642,32587
21.456,190,32769,32746,32756,32749,32696,32642
21.456,191,32796,32813,32795,32782,32741,32691
21.467,192,32904,32832,32819,32807,32776,32732
21.478,193,32952,32851,32839,32830,32805,32766
21.478,194,32952,32916,32889,32871,32840,32801
21.502,195,32966,32963,32939,32915,32879,32838
21.511,196,32994,32978,32967,32949,32914,32873
21.511,197,32966,32971,32970,32964,32941,32903
21.533,198,32958,32974,32971,32971,32958,32926
21.535,199,32958,32960,32962,32967,32962,32941
21.536,200,32939,32943,32948,32955,32958,32948
21.556,201,32937,32936,32938,32942,32951,32948
21.564,202,32941,32928,32931,32933,32942,32943
21.564,203,32955,32940,32935,32932,32937,32941
21.564,204,32646,32936,32933,32931,32933,32939
21.576,205,32235,32909,32917,32921,32924,32932
21.576,206,32430,32698,32772,32822,32871,32898
21.576,207,32533,32366,32500,32613,32741,32814
21.589,208,32323,32369,32408,32477,32608,32711
21.603,209,32442,32447,32430,32440,32522,32622
21.617,210,32650,32359,32383,32400,32459,32546
21.617,211,32805,32403,32397,32397,32426,32490
21.619,212,32769,32561,32506,32467,32445,32474
21.649,213,32711,32746,32669,32599,32523,32506
21.649,214,32803,32771,32741,32693,32607,32561
21.653,215,32766,32724,32734,32723,32665,32613
21.653,216,32785,32793,32776,32761,32716,32664
21.677,217,32880,32790,32787,32778,32749,32705
21.703,218,32909,32783,32784,32784,32768,32733
21.703,219,32912,32854,32830,32815,32794,32760
21.706,220,32938,32915,32888,32863,32829,32794
21.706,221,32950,32923,32913,32897,32864,32827
21.706,222,32912,32906,32911,32907,32888,32853
21.714,223,32920,32918,32916,32912,32902,32875
21.736,224,32942,32923,32920,32918,32910,32891
21.736,225,32946,32930,32927,32924,32918,32904
21.761,226,32961,32942,32937,32931,32927,32916
21.761,227,32966,32941,32939,32935,32930,32922
21.764,228,32979,32953,32949,32942,32936,32929
21.787,229,32698,32971,32962,32953,32945,32937
21.789,230,32305,32966,32962,32960,32951,32943
21.789,231,32501,32762,32831,32877,32912,32925
21.790,232,32631,32440,32579,32681,32795,32855
21.797,233,32446,32461,32498,32560,32679,32766
21.797,234,32558,32550,32524,32532,32607,32689
21.806,235,32813,32541,32534,32529,32565,32631
21.824,236,33040,32701,32641,32600,32580,32612
21.824,237,32953,32801,32746,32693,32637,32630
21.837,238,32854,32877,32841,32789,32712,32674
21.837,239,32979,32931,32905,32867,32788,32733
21.854,240,32908,32875,32886,32883,32836,32784
21.864,241,32895,32898,32896,32894,32866,32824
21.886,242,32962,32900,32899,32897,32883,32851
21.887,243,32919,32873,32881,32887,32887,32865
21.887,244,32920,32895,32890,32889,32889,32873
21.897,245,32940,32902,32897,32894,32890,32879
21.910,246,32918,32895,32896,32896,32891,32882
21.910,247,32907,32893,32897,32897,32893,32886
21.910,248,32910,32892,32895,32895,32895,32889
21.922,249,32893,32884,32886,32890,32894,32888
21.936,250,32883,32876,32878,32883,32887,32886
21.937,251,32885,32870,32873,32877,32880,32884
21.945,252,32878,32860,32866,32869,32874,32879
21.955,253,32877,32855,32858,32860,32868,32873
21.955,254,32867,32854,32854,32856,32861,32866
21.966,255,32849,32850,32851,32853,32857,32862
21.978,0,32553,32651,32725,32769,32811,32836
21.986,1,32176,32325,32478,32578,32692,32763
22.008,2,32362,32334,32384,32449,32574,32668
22.008,3,32473,32424,32395,32409,32493,32583
22.011,4,32489,32386,32389,32392,32440,32517
22.023,5,32861,32489,32456,32432,32434,32482
22.030,6,32754,32613,32556,32513,32472,32484
22.030,7,32614,32730,32677,32621,32545,32521
22.042,8,32782,32757,32734,32698,32621,32574
22.051,9,32669,32697,32710,32712,32667,32620
22.051,10,32651,32724,32720,32722,32696,32658
22.064,11,32736,32713,32715,32718,32709,32683
22.073,12,32706,32700,32706,32711,32712,32696
22.083,13,32721,32733,32724,32720,32718,32705
22.093,14,32737,32745,32737,32730,32726,32714
22.093,15,32735,32752,32746,32743,32733,32722
22.118,16,32752,32761,32757,32753,32743,32731
22.120,17,32749,32764,32761,32759,32753,32742
22.120,18,32738,32765,32762,32762,32759,32749
22.140,19,32750,32768,32765,32764,32763,32755
22.141,20,32757,32768,32766,32766,32766,32761
22.142,21,32769,32778,32773,32772,32769,32764
22.158,22,32804,32800,32791,32785,32777,32771
22.158,23,32797,32815,32807,32799,32787,32781
22.169,24,32766,32823,32817,32811,32799,32791
22.181,25,32496,32631,32700,32738,32768,32777
22.189,26,32148,32317,32462,32556,32660,32715
22.189,27,32342,32344,32384,32443,32552,32635
22.201,28,32465,32442,32407,32418,32488,32564
22.216,29,32434,32378,32388,32395,32440,32506
22.217,30,32735,32441,32426,32413,32423,32471
22.224,31,32704,32581,32525,32487,32455,32470
22.244,32,32635,32732,32665,32606,32530,32506
22.246,33,32779,32769,32736,32693,32611,32562
22.257,34,32708,32742,32741,32727,32670,32617
22.258,35,32728,32796,32779,32765,32719,32667
22.264,36,32801,32798,32791,32784,32753,32708
22.279,37,32777,32795,32794,32792,32774,32739
22.288,38,32800,32830,32817,32810,32794,32764
22.288,39,32821,32844,32833,32825,32811,32785
22.311,40,32828,32857,32850,32842,32827,32804
22.328,41,32848,32870,32863,32858,32842,32821
22.338,42,32833,32865,32864,32863,32852,32834
22.338,43,32800,32844,32851,32855,32854,32842
22.338,44,32600,32708,32754,32788,32822,32828
22.358,45,32238,32433,32537,32622,32722,32768
22.360,46,32239,32339,32405,32478,32600,32681
22.360,47,32420,32420,32415,32435,32519,32603
22.377,48,32360,32410,32410,32417,32468,32541
22.377,49,32435,32459,32444,32435,32453,32502
22.377,50,32571,32567,32528,32496,32475,32496
22.389,51,32470,32537,32535,32520,32496,32502
22.389,52,32521,32499,32513,32518,32507,32509
22.403,53,32700,32528,32526,32527,32517,32517
22.412,54,32654,32568,32552,32546,32531,32528
22.412,55,32686,32654,32616,32593,32562,32549
22.422,56,32785,32736,32696,32661,32612,32583
22.438,57,32890,32884,32825,32769,32693,32640
22.446,58,33178,33114,33019,32936,32818,32732
22.446,59,33232,33197,33139,33073,32946,32839
22.456,60,33094,33164,33156,33130,33038,32936
22.479,61,33157,33177,33170,33160,33100,33014
22.482,62,33195,33188,33181,33175,33137,33070
22.482,63,33140,33173,33172,33171,33155,33107
22.492,64,33152,33179,33173,33171,33165,33129
22.494,65,33127,33162,33163,33165,33164,33140
22.512,66,33082,33130,33139,33147,33154,33142
22.512,67,33065,33093,33105,33119,33135,33132
22.521,68,32814,32893,32964,33015,33076,33098
22.531,69,32308,32516,32665,32783,32933,33007
22.531,70,32194,32334,32442,32558,32744,32865
22.543,71,32660,32565,32524,32535,32639,32755
22.553,72,32896,32810,32711,32646,32643,32710
22.566,73,32775,32824,32783,32731,32682,32703
22.574,74,32880,32880,32853,32813,32744,32731
22.598,75,32931,32933,32907,32876,32809,32776
22.600,76,32822,32880,32886,32883,32844,32813
22.618,77,32889,32899,32897,32894,32869,32843
22.618,78,32891,32908,32903,32899,32883,32864
22.618,79,32849,32883,32887,32890,32885,32875
22.618,80,32887,32899,32894,32892,32888,32882
22.631,81,32868,32893,32893,32891,32887,32884
22.631,82,32863,32883,32886,32888,32885,32883
22.632,83,32879,32887,32886,32887,32885,32882
22.646,84,32865,32881,32881,32883,32884,32882
22.659,85,32865,32878,32877,32879,32882,32879
22.668,86,32868,32876,32876,32876,32878,32876
22.668,87,32573,32871,32872,32872,32874,32873
22.681,88,32211,32870,32870,32869,32871,32870
22.689,89,32425,32679,32740,32785,32826,32842
22.716,90,32561,32370,32492,32595,32709,32765
22.716,91,32396,32401,32433,32491,32603,32678
22.718,92,32529,32501,32479,32483,32550,32615
22.725,93,32570,32430,32447,32460,32511,32565
22.737,94,32754,32542,32509,32493,32505,32542
22.737,95,33142,32667,32609,32568,32537,32547
22.741,96,33016,32776,32718,32667,32600,32580
22.757,97,32970,33015,32916,32832,32715,32655
22.768,98,33115,33037,32998,32942,32828,32744
22.768,99,32984,32973,32988,32975,32901,32823
22.779,100,33001,33033,33021,33007,32955,32888
22.790,101,33046,32997,33003,33004,32981,32932
22.790,102,32972,32972,32983,32990,32986,32958
22.802,103,32999,32994,32988,32988,32985,32971
22.824,104,32993,32965,32971,32974,32978,32974
22.826,105,32963,32963,32966,32965,32969,32971
22.851,106,32974,32963,32963,32961,32962,32965
22.851,107,32960,32946,32951,32953,32955,32957
22.853,108,32948,32943,32945,32947,32950,32949
22.853,109,32948,32935,32938,32940,32944,32945
22.881,110,32938,32924,32929,32932,32936,32939
22.881,111,32931,32920,32923,32923,32930,32931
22.882,112,32860,32910,32914,32916,32922,32923
22.883,113,32770,32901,32905,32909,32912,32916
22.894,114,32591,32706,32779,32822,32865,32884
22.894,115,32332,32388,32537,32633,32747,32806
22.902,116,32451,32405,32457,32520,32635,32715
22.916,117,32585,32510,32484,32499,32572,32644
22.924,118,32463,32451,32463,32473,32528,32589
22.924,119,32684,32507,32496,32490,32513,32558
22.971,120,32900,32546,32531,32520,32516,32544
22.972,121,32890,32656,32613,32581,32548,32553
22.997,122,33063,32913,32800,32724,32636,32603
22.997,123,33061,32976,32916,32852,32741,32675
22.999,124,32953,33012,32991,32945,32841,32760
23.007,125,33039,33065,33039,33007,32925,32845
23.007,126,32999,32998,33010,33010,32969,32906
23.007,127,32961,33003,33007,33008,32990,32947
23.007,128,32997,33007,33002,33002,32996,32970
23.014,129,32956,32968,32977,32983,32988,32978
23.022,130,32949,32977,32977,32975,32980,32978
23.022,131,32951,32964,32965,32965,32970,32971
23.035,132,32926,32944,32949,32952,32958,32960
23.037,133,32924,32942,32943,32943,32949,32951
23.037,134,32917,32929,32932,32934,32941,32943
23.067,135,32901,32917,32921,32924,32930,32935
23.069,136,32896,32910,32912,32914,32921,32926
23.085,137,32886,32900,32901,32904,32912,32917
23.085,138,32876,32890,32892,32895,32902,32906
23.085,139,32585,32692,32766,32808,32853,32873
23.096,140,32212,32371,32522,32618,32733,32794
23.109,141,32416,32387,32439,32504,32621,32701
23.110,142,32548,32490,32464,32483,32557,32629
23.118,143,32376,32429,32441,32455,32511,32574
23.129,144,32671,32485,32473,32465,32492,32541
23.141,145,32918,32522,32505,32495,32495,32523
23.142,146,32848,32644,32597,32563,32528,32533
23.151,147,32991,32925,32806,32721,32624,32587
23.161,148,33005,32966,32911,32847,32733,32664
23.191,149,32884,32965,32955,32920,32825,32748
23.193,150,32962,33027,33002,32975,32901,32825
23.193,151,32936,32963,32974,32977,32939,32880
23.205,152,32889,32956,32962,32967,32954,32917
23.212,153,32927,32968,32962,32962,32958,32936
23.212,154,32891,32929,32937,32944,32950,32942
23.213,155,32879,32933,32931,32933,32939,32940
23.227,156,32884,32922,32922,32921,32927,32932
23.234,157,32859,32901,32905,32908,32915,32921
23.246,158,32854,32898,32897,32900,32907,32911
23.246,159,32849,32884,32887,32890,32897,32902
23.255,160,32833,32870,32874,32878,32886,32893
23.266,161,32825,32862,32865,32868,32876,32883
23.274,162,32820,32853,32857,32860,32867,32873
23.296,163,32815,32845,32847,32850,32857,32863
23.297,164,32524,32802,32816,32825,32840,32848
23.321,165,32158,32740,32767,32786,32811,32826
23.329,166,32363,32583,32643,32693,32750,32782
23.329,167,32489,32343,32441,32531,32640,32703
23.329,168,32322,32353,32384,32437,32543,32620
23.345,169,32454,32442,32423,32427,32492,32560
23.349,170,32488,32388,32400,32410,32454,32514
23.349,171,32715,32575,32515,32480,32469,32501
23.356,172,33160,32851,32731,32644,32557,32538
23.362,173,32947,32846,32805,32749,32651,32600
23.362,174,32815,32850,32839,32809,32730,32669
23.380,175,33020,32928,32900,32871,32801,32736
23.380,176,32885,32903,32905,32896,32849,32793
23.393,177,32864,32894,32898,32897,32876,32835
23.423,178,32936,32895,32893,32894,32886,32859
23.426,179,32850,32871,32878,32883,32883,32871
23.433,180,32867,32868,32870,32872,32877,32874
23.437,181,32875,32858,32861,32862,32868,32869
23.444,182,32835,32846,32852,32854,32859,32861
23.444,183,32844,32840,32844,32846,32852,32854
23.449,184,32834,32830,32835,32838,32845,32847
23.467,185,32819,32822,32827,32829,32836,32841
23.467,186,32818,32815,32819,32821,32828,32834
23.467,187,32804,32805,32808,32811,32819,32825
23.478,188,32796,32798,32800,32803,32811,32815
23.491,189,32508,32603,32676,32719,32763,32784
23.504,190,32135,32283,32434,32531,32645,32707
23.505,191,32341,32297,32349,32415,32532,32615
23.514,192,32474,32402,32375,32393,32469,32542
23.539,193,32303,32342,32355,32368,32423,32488
23.539,194,32617,32398,32388,32383,32406,32457
23.543,195,32888,32439,32423,32414,32412,32441
23.566,196,32796,32577,32526,32488,32451,32452
